x,theta
0.0,6.263226870553474
1.0,6.2638424055529995
2.0,6.2644580845248825
3.0,6.2650739097285
4.0,6.266734082177145
5.0,6.268393394965344
6.0,6.269009819754849
7.0,6.269626389721083
8.0,6.27024310527888
9.0,6.270859966960131
10.0,6.271476973559707
11.0,6.272094126184719
12.0,6.2727114237640365
13.0,6.273328867817433
14.0,6.273946457895619
15.0,6.274564194082139
16.0,6.275182075779227
17.0,6.275800103225933
18.0,6.276418276414262
19.0,6.277036596183066
20.0,6.277655062398146
21.0,6.2782736738418095
22.0,6.278892433410391
23.0,6.279511337912446
24.0,6.2801303899047625
25.0,6.2807495874930765
26.0,6.2813689322588075
27.0,6.281988422940067
28.0,6.282608060890432
29.0,6.283227845383124
30.0,6.283847777210099
31.0,6.284467855444312
32.0,6.285088080588338
33.0,6.285708452696106
34.0,6.286328971737831
35.0,6.286949637977493
36.0,6.287570450945815
37.0,6.2881914119396995
38.0,6.288812520273773
39.0,6.289433775346147
40.0,6.2900551775067015
41.0,6.290676727818827
42.0,6.291298426102017
43.0,6.291920270641711
44.0,6.292542264229915
45.0,6.2931644048574285
46.0,6.293786693374443
47.0,6.2944091294166995
48.0,6.295031714027957
49.0,6.2956544465181565
50.0,6.296277325985933
51.0,6.296900354478183
52.0,6.297523530629682
53.0,6.2981468558706695
54.0,6.298770328896715
55.0,6.299393950246213
56.0,6.300017719107082
57.0,6.300641637940366
58.0,6.301265704849413
59.0,6.301889919678345
60.0,6.30251428405024
61.0,6.303138796453901
62.0,6.303763457903045
63.0,6.303339174006311
64.0,6.302916048492968
65.0,6.303540989361601
66.0,6.304166079490791
67.0,6.304791318439634
68.0,6.3054167067204006
69.0,6.306042243960967
70.0,6.30666793043995
71.0,6.307293766216986
72.0,6.307919751308482
73.0,6.308545885555155
74.0,6.309172169811873
75.0,6.309798603254386
76.0,6.310425186378247
77.0,6.311051919761326
78.0,6.311678801984293
79.0,6.312305834017906
80.0,6.311882544707309
81.0,6.311460416861173
82.0,6.3120877308458745
83.0,6.312715195290913
84.0,6.313342809734131
85.0,6.313970573795409
86.0,6.31459848868699
87.0,6.315226553335528
88.0,6.315854767963231
89.0,6.316483133610106
90.0,6.317111649708799
91.0,6.317740315918471
92.0,6.317317699049532
93.0,6.316896245363026
94.0,6.3175251956077645
95.0,6.318154295755306
96.0,6.318783547212284
97.0,6.319412949520093
98.0,6.320042502894495
99.0,6.32067220650751
100.0,6.321302061504404
101.0,6.3219320679253315
102.0,6.321509994894271
103.0,6.321089086004854
104.0,6.321719377184564
105.0,6.32234981944724
106.0,6.32298041295379
107.0,6.323611157956535
108.0,6.324242054499166
109.0,6.3248731027236715
110.0,6.325504302337038
111.0,6.325082709073506
112.0,6.324662281612497
113.0,6.325293767713099
114.0,6.325925404749611
115.0,6.326557194093695
116.0,6.3271891354746685
117.0,6.32782122927307
118.0,6.328453474674902
119.0,6.3280322960945625
120.0,6.327612285385662
121.0,6.328244817777303
122.0,6.328877502743438
123.0,6.329510339794545
124.0,6.330143329187045
125.0,6.330776471221476
126.0,6.330355642304099
127.0,6.3299359822165755
128.0,6.330569411790641
129.0,6.33120299453666
130.0,6.331836730221475
131.0,6.332470618040389
132.0,6.333104659390457
133.0,6.3326841815222465
134.0,6.332264873007546
135.0,6.332899203023551
136.0,6.333533686190357
137.0,6.334168322018172
138.0,6.334803111626428
139.0,6.33438291820282
140.0,6.333963895312706
141.0,6.334598974224697
142.0,6.335234206563712
143.0,6.335869592586562
144.0,6.33650513193178
145.0,6.336085223613985
146.0,6.335666487738436
147.0,6.336302318045092
148.0,6.336938301159755
149.0,6.337574438347339
150.0,6.338210729641183
151.0,6.337791108453239
152.0,6.33737265952378
153.0,6.338009241873969
154.0,6.338645978439331
155.0,6.339282869341389
156.0,6.338863465901284
157.0,6.33844523696883
158.0,6.339082420471286
159.0,6.339719755387023
160.0,6.3403572476420536
161.0,6.339938064419407
162.0,6.339520057155518
163.0,6.340157839531145
164.0,6.34079577842104
165.0,6.341433871922035
166.0,6.341014908142093
167.0,6.340597118694006
168.0,6.34123550543881
169.0,6.341874043605543
170.0,6.342512743351733
171.0,6.365047341304674
172.0,6.363575103038428
173.0,6.362098791786593
174.0,6.362739493704154
175.0,6.3633803516145235
176.0,6.36402136542624
177.0,6.362548692392281
178.0,6.3610719420539255
179.0,6.3836006770481575
180.0,6.384243696895467
181.0,6.384886877400362
182.0,6.384470962932319
183.0,6.384056221528141
184.0,6.384699698973272
185.0,6.38534333134983
186.0,6.384927573062761
187.0,6.38451298713278
188.0,6.385156917599453
189.0,6.38580100672911
190.0,6.3864452515907075
191.0,6.386029717546833
192.0,6.385615361053624
193.0,6.386259905209968
194.0,6.3869046045585165
195.0,6.386489228411243
196.0,6.386075028884882
197.0,6.386720027708975
198.0,6.387365184362878
199.0,6.386949964855738
200.0,6.3865359222350975
201.0,6.387181379055164
202.0,6.38782699323022
203.0,6.387411930728639
204.0,6.386998046360553
205.0,6.38764396050167
206.0,6.387228984688122
207.0,6.386815187521499
208.0,6.387461401882675
209.0,6.388107774127377
210.0,6.387692956394531
211.0,6.387279317816692
212.0,6.387925991212235
213.0,6.388572822326793
214.0,6.388158162760114
215.0,6.387744683232093
216.0,6.388391815773616
217.0,6.387977243619986
218.0,6.387563851975891
219.0,6.388211286191634
220.0,6.388858879135803
221.0,6.388444465626655
222.0,6.388031233604963
223.0,6.388679128803432
224.0,6.388264803275952
225.0,6.387851659538249
226.0,6.388499856794013
227.0,6.388085618612614
228.0,6.387672564300438
229.0,6.388321064113832
230.0,6.38896972327445
231.0,6.388555645282601
232.0,6.388142751281933
233.0,6.388791712754035
234.0,6.388377722299715
235.0,6.387964917315578
236.0,6.3886141838688815
237.0,6.388200282562742
238.0,6.38778756720999
239.0,6.388437136172477
240.0,6.3880233195165275
241.0,6.387610697920373
242.0,6.388260570348699
243.0,6.410930203057504
244.0,6.409456871334768
245.0,6.407979444538654
246.0,6.408631369965562
247.0,6.4071576329007485
248.0,6.405679797460337
249.0,6.4283398615227085
250.0,6.428993843830469
251.0,6.428582812164777
252.0,6.428172963715788
253.0,6.4288272472718475
254.0,6.428416307693929
255.0,6.428006552525595
256.0,6.428661148176104
257.0,6.428250299504349
258.0,6.4278406350782475
259.0,6.427429804862506
260.0,6.427020158495459
261.0,6.427675209389996
262.0,6.427264470329838
263.0,6.426854917253863
264.0,6.427510276543963
265.0,6.427099629423353
266.0,6.426690168630586
267.0,6.427345837916498
268.0,6.42693528250804
269.0,6.426525913937439
270.0,6.427181893570705
271.0,6.426771429823667
272.0,6.426362154116269
273.0,6.425951709171144
274.0,6.425542452197803
275.0,6.426198890135467
276.0,6.425788537346818
277.0,6.425379373618782
278.0,6.426036122278461
279.0,6.425625862103281
280.0,6.425216791971273
281.0,6.424806549692676
282.0,6.424397498819943
283.0,6.425054706616464
284.0,6.424644558139313
285.0,6.424235600273498
286.0,6.4238254697810575
287.0,6.423416531915507
288.0,6.424074199787832
289.0,6.423664162695765
290.0,6.42325531852201
291.0,6.422845300560155
292.0,6.42243647410551
293.0,6.423094604879736
294.0,6.422684677937937
295.0,6.422275948608181
296.0,6.445046196288814
297.0,6.441433751983425
298.0,6.442093952856268
299.0,6.4427543178335895
300.0,6.439140919244551
301.0,6.461899700823636
302.0,6.461492393504869
303.0,6.461086278412445
304.0,6.461748715569307
305.0,6.4613415062580515
306.0,6.460935485344599
307.0,6.460528294005684
308.0,6.46012229489309
309.0,6.459715123244777
310.0,6.459309144691467
311.0,6.459972204028368
312.0,6.459565128663677
313.0,6.459159246463216
314.0,6.458752191939368
315.0,6.458346330577399
316.0,6.457939296167538
317.0,6.457533455864272
318.0,6.458197136126387
319.0,6.45779019797947
320.0,6.457384454916102
321.0,6.456977537572989
322.0,6.456571815700194
323.0,6.456164918628538
324.0,6.455759217502148
325.0,6.455352341051913
326.0,6.454946661440069
327.0,6.455611117112078
328.0,6.455204338033333
329.0,6.454798755709106
330.0,6.454391996679632
331.0,6.45398643619685
332.0,6.453579697799995
333.0,6.453174158532292
334.0,6.452767441763143
335.0,6.452361922926116
336.0,6.451955227045822
337.0,6.451549730543121
338.0,6.45114305401902
339.0,6.450737577241817
340.0,6.473592152294884
341.0,6.469971448787561
342.0,6.470638770562488
343.0,6.467017297501727
344.0,6.489858449554774
345.0,6.489454363373021
346.0,6.489051470707842
347.0,6.488647404694738
348.0,6.488244534271921
349.0,6.487840489510802
350.0,6.487437643700801
351.0,6.48810738016121
352.0,6.48770343464227
353.0,6.487300688820497
354.0,6.486896766709208
355.0,6.486494043059906
356.0,6.486090143066313
357.0,6.485687442710905
358.0,6.485283565207922
359.0,6.484880887298367
360.0,6.4844770313226405
361.0,6.484074377053858
362.0,6.48367054397054
363.0,6.4821933515219925
364.0,6.481790664837739
365.0,6.4813867984893605
366.0,6.480984134438856
367.0,6.480580290921019
368.0,6.480177649865148
369.0,6.479773828857333
370.0,6.4793712107938575
371.0,6.478967411846526
372.0,6.478564818210131
373.0,6.478161042499629
374.0,6.4777584713276966
375.0,6.477354717225772
376.0,6.476952169345651
377.0,6.476548439632225
378.0,6.4761459125558005
379.0,6.4969232068800835
380.0,6.495447828051127
381.0,6.49396851260704
382.0,6.514733741626756
383.0,6.514332562792944
384.0,6.513932577297226
385.0,6.513531417924767
386.0,6.513131461985893
387.0,6.512730327434468
388.0,6.512330395853667
389.0,6.511929284806449
390.0,6.51045221690179
391.0,6.510052255251928
392.0,6.509651112042739
393.0,6.5092511741289485
394.0,6.508850055577874
395.0,6.5084501425524905
396.0,6.5080490475485036
397.0,6.507649159152592
398.0,6.507248088806911
399.0,6.505770478834755
400.0,6.505370560196454
401.0,6.504969458315557
402.0,6.504569564187776
403.0,6.504168486495331
404.0,6.503768617423589
405.0,6.503367563833599
406.0,6.501889522019411
407.0,6.501489622873073
408.0,6.50108853796177
409.0,6.500688663094095
410.0,6.500287604186106
411.0,6.499887753587522
412.0,6.499486718710777
413.0,6.521405427300039
414.0,6.517770977846396
415.0,6.518450354039885
416.0,6.514815123008859
417.0,6.536718061969879
418.0,6.5363207308584705
419.0,6.535922221311083
420.0,6.535524920736755
421.0,6.535126437538423
422.0,6.533649114553015
423.0,6.533251785362694
424.0,6.532853272553631
425.0,6.532455968393613
426.0,6.53205748121006
427.0,6.530579837317688
428.0,6.530182505214398
429.0,6.529783987588523
430.0,6.529386681863066
431.0,6.5289881902894535
432.0,6.5275102249659085
433.0,6.527112890351567
434.0,6.526714368901665
435.0,6.525236193439312
436.0,6.524838829985484
437.0,6.524440278709733
438.0,6.524042942139516
439.0,6.523644417090445
440.0,6.52216592010906
441.0,6.5217685549586335
442.0,6.521370001416116
443.0,6.51989129138731
444.0,6.519493898190589
445.0,6.540388277359568
446.0,6.53891219608785
447.0,6.535271110688129
448.0,6.55831444008399
449.0,6.557918447037402
450.0,6.556441021305574
451.0,6.556046184795882
452.0,6.555650160449353
453.0,6.554172528914357
454.0,6.553777661861112
455.0,6.5533816097930995
456.0,6.551903766609932
457.0,6.551508873106421
458.0,6.551112792790647
459.0,6.549634738265887
460.0,6.549239817842434
461.0,6.548843708267427
462.0,6.547365443486477
463.0,6.546970495290076
464.0,6.546574357777871
465.0,6.545095881721629
466.0,6.544700906942978
467.0,6.544304741035461
468.0,6.542826053058079
469.0,6.5424310516889435
470.0,6.542034857325312
471.0,6.540555960911647
472.0,6.540160931530814
473.0,6.539764709878064
474.0,6.561797786971212
475.0,6.5581518105949215
476.0,6.556671488633157
477.0,6.577605666512206
478.0,6.577212008064187
479.0,6.575734318888685
480.0,6.5753418200333655
481.0,6.574948131706954
482.0,6.573470232604606
483.0,6.571992231234553
484.0,6.571599652624826
485.0,6.571205883161269
486.0,6.569727670242102
487.0,6.569335064975618
488.0,6.568941268580666
489.0,6.567462844224465
490.0,6.56707021285284
491.0,6.566676390034182
492.0,6.5651977546450055
493.0,6.563719017557105
494.0,6.563326306273346
495.0,6.562932400752636
496.0,6.5614534528195705
497.0,6.561060716016428
498.0,6.560666782661862
499.0,6.559187624520462
500.0,6.557708360372793
501.0,6.557315543882289
502.0,6.578312295718774
503.0,6.574660811528943
504.0,6.595643555685818
505.0,6.595252109545463
506.0,6.593774186604499
507.0,6.59338389896012
508.0,6.592992418685604
509.0,6.5915142881563185
510.0,6.590036057029096
511.0,6.589645688768641
512.0,6.589254127520739
513.0,6.587775683985335
514.0,6.586297138643893
515.0,6.585906691047306
516.0,6.585515049588643
517.0,6.58403629186563
518.0,6.582557432188679
519.0,6.5821669059158765
520.0,6.5817751842280074
521.0,6.580296113130871
522.0,6.578816939377994
523.0,6.578426334374328
524.0,6.578034532375916
525.0,6.576555147310096
526.0,6.5750756564284245
527.0,6.5746849737774085
528.0,6.595728806187424
529.0,6.592072389948399
530.0,6.613102191317985
531.0,6.612712893604169
532.0,6.611234771321591
533.0,6.609756547117023
534.0,6.609368361579222
535.0,6.608978982901604
536.0,6.607500545577494
537.0,6.606022007262112
538.0,6.6045433664990725
539.0,6.604155049036912
540.0,6.603765535084143
541.0,6.602286682140679
542.0,6.6008077260415305
543.0,6.599328667655406
544.0,6.598940217734203
545.0,6.598550570179704
546.0,6.5970712997139955
547.0,6.595591926978599
548.0,6.595203400199196
549.0,6.5948136736295595
550.0,6.593334088234037
551.0,6.591854399885818
552.0,6.6140357276988055
553.0,6.610374964088194
554.0,6.606713594934476
555.0,6.628877097158352
556.0,6.627398802525676
557.0,6.6270126888929894
558.0,6.6266253797935235
559.0,6.625146872240002
560.0,6.623668263108996
561.0,6.622189551081341
562.0,6.621803307081841
563.0,6.621415864080724
564.0,6.6199369387399045
565.0,6.618457911448587
566.0,6.616978779966132
567.0,6.6154995473876355
568.0,6.615113116881716
569.0,6.614725485953883
570.0,6.613246040691706
571.0,6.611766491788941
572.0,6.610286841053842
573.0,6.608807086824974
574.0,6.608420471313593
575.0,6.608032655656892
576.0,6.628071926079301
577.0,6.62440639171048
578.0,6.645523678796103
579.0,6.645138434755943
580.0,6.643659984305451
581.0,6.642181428933391
582.0,6.640702771405614
583.0,6.639224011085226
584.0,6.637745147026585
585.0,6.637360860567583
586.0,6.636975373440329
587.0,6.635496296004135
588.0,6.634017115538185
589.0,6.632537832044861
590.0,6.6310584446353715
591.0,6.629578954886917
592.0,6.629194429657431
593.0,6.628808701724253
594.0,6.627328997635843
595.0,6.625849193822326
596.0,6.62436928111844
597.0,6.622889270131125
598.0,6.645159103658017
599.0,6.641489595133436
600.0,6.6378194741897545
601.0,6.660071437594951
602.0,6.658592860335929
603.0,6.657114173795705
604.0,6.655635385030919
605.0,6.654156492613829
606.0,6.653774155452837
607.0,6.653390616069203
608.0,6.6519115099420105
609.0,6.650432299956272
610.0,6.648952986678218
611.0,6.647473569311586
612.0,6.645994049002212
613.0,6.644514425248168
614.0,6.643034696072476
615.0,6.642652013843993
616.0,6.6422681248678686
617.0,6.640788183209729
618.0,6.639308137661843
619.0,6.637827990074612
620.0,6.657944188334852
621.0,6.654270278645242
622.0,6.674370140288794
623.0,6.673989851961707
624.0,6.673608356659152
625.0,6.672129553605167
626.0,6.670650647752993
627.0,6.669171635705702
628.0,6.66769252044373
629.0,6.6662133009984075
630.0,6.664733977556118
631.0,6.663254549455267
632.0,6.661775017804622
633.0,6.660295381488204
634.0,6.658815641959386
635.0,6.658434843373428
636.0,6.658052836783796
637.0,6.656572883415464
638.0,6.655092826482218
639.0,6.653612664404676
640.0,6.652132400030439
641.0,6.672285568095106
642.0,6.66860765404715
643.0,6.688744457982402
644.0,6.687265664281412
645.0,6.685786768377277
646.0,6.684307766248914
647.0,6.682828659575591
648.0,6.682450001833608
649.0,6.682070137922139
650.0,6.680590816773176
651.0,6.679111391544289
652.0,6.677631861393216
653.0,6.676152227016921
654.0,6.6746724877833685
655.0,6.673192644457231
656.0,6.6717126974502605
657.0,6.670232643429834
658.0,6.668752487525531
659.0,6.667272226309784
660.0,6.66579185997076
661.0,6.68598035852105
662.0,6.6822986302305765
663.0,6.702470737516222
664.0,6.700991860280091
665.0,6.699512879030557
666.0,6.698033792933742
667.0,6.696554600808668
668.0,6.695075305013077
669.0,6.693595901952477
670.0,6.693218916894288
671.0,6.69284072171348
672.0,6.691361106012636
673.0,6.689881384820552
674.0,6.688401559943621
675.0,6.686921629153723
676.0,6.685441593711992
677.0,6.683961454528635
678.0,6.682481210411943
679.0,6.68100085859475
680.0,6.679520407395543
681.0,6.699744433772096
682.0,6.696058882083975
683.0,6.716266497230542
684.0,6.7147875483478145
685.0,6.713308490832183
686.0,6.711829330869861
687.0,6.710350065476646
688.0,6.708870695190555
689.0,6.707391219124965
690.0,6.7059116373521235
691.0,6.704431951125862
692.0,6.702952159365431
693.0,6.701472262405865
694.0,6.699992260157714
695.0,6.69851215280147
696.0,6.697031939538938
697.0,6.69555162217145
698.0,6.6940711989248385
699.0,6.692590672329281
700.0,6.712848548154483
701.0,6.706951750634175
702.0,6.729400803470035
703.0,6.727921797414297
704.0,6.726442683552406
705.0,6.724963463672239
706.0,6.72348413915789
707.0,6.722004710171632
708.0,6.719419086897112
709.0,6.71683446595312
710.0,6.715354616743248
711.0,6.713874661425102
712.0,6.712394601253159
713.0,6.710914434629359
714.0,6.709434162333402
715.0,6.707953785333871
716.0,6.706473303392599
717.0,6.704992714698733
718.0,6.725282730147811
719.0,6.721590110376312
720.0,6.741863661958114
721.0,6.7403846099702065
722.0,6.73890545113175
723.0,6.737426186627943
724.0,6.735946816197583
725.0,6.7344673406814906
726.0,6.7329877572692425
727.0,6.731508069377135
728.0,6.730028274172199
729.0,6.727440433912022
730.0,6.724853598883193
731.0,6.723373382873035
732.0,6.721893060933212
733.0,6.720412634861681
734.0,6.718932098642604
735.0,6.717451463976502
736.0,6.737773782963572
737.0,6.734077718168493
738.0,6.7543835558421605
739.0,6.752904464863136
740.0,6.751425267060149
741.0,6.749945967708051
742.0,6.748466561505239
743.0,6.745877610660187
744.0,6.74328966449508
745.0,6.741809833871876
746.0,6.740329896805022
747.0,6.738849853353791
748.0,6.737369704432268
749.0,6.735889448738931
750.0,6.7344090876206195
751.0,6.732928618714013
752.0,6.731448044959961
753.0,6.754021040172091
754.0,6.745883110186924
755.0,6.76621947658073
756.0,6.76474036529288
757.0,6.763261145725849
758.0,6.761781819917353
759.0,6.7603023884037015
760.0,6.7588228485175605
761.0,6.757343202028693
762.0,6.755863449838905
763.0,6.753272381361242
764.0,6.750682321037026
765.0,6.74920214396446
766.0,6.747721859865052
767.0,6.746241467708025
768.0,6.7447609729128075
769.0,6.743280365988156
770.0,6.76588730264443
771.0,6.759964337995385
772.0,6.754036447131895
773.0,6.776627577472702
774.0,6.775148342335093
775.0,6.773668999066324
776.0,6.772189549774971
777.0,6.770709993526374
778.0,6.7692303300816405
779.0,6.766637782587715
780.0,6.764046242342594
781.0,6.762566151865975
782.0,6.7610859549543605
783.0,6.759605651592999
784.0,6.758125240298121
785.0,6.755531672628329
786.0,6.75293912498028
787.0,6.773353564353826
788.0,6.76964773324714
789.0,6.7900456209823545
790.0,6.788566486535494
791.0,6.787087242754097
792.0,6.7844937012234325
793.0,6.7819011681593295
794.0,6.780421495416299
795.0,6.778941717187486
796.0,6.777461830269139
797.0,6.775981836837481
798.0,6.773387271320303
799.0,6.770793715449358
800.0,6.7693132933110505
801.0,6.767832764040421
802.0,6.7663521271058045
803.0,6.789025297056654
804.0,6.780858709968953
805.0,6.801285642604874
806.0,6.79980651104384
807.0,6.798327268341666
808.0,6.796847919283458
809.0,6.79536846272692
810.0,6.792773066660736
811.0,6.790178679202533
812.0,6.788698791747947
813.0,6.787218796654102
814.0,6.785738694186421
815.0,6.783142429822568
816.0,6.780547177361072
817.0,6.779066646118231
818.0,6.777586004637556
819.0,6.800291450344048
820.0,6.792115648604721
821.0,6.812571761490489
822.0,6.811092638646279
823.0,6.8096134068328595
824.0,6.808134065654421
825.0,6.805537300470782
826.0,6.802941544516756
827.0,6.801461772363908
828.0,6.799981891429923
829.0,6.797384415986663
830.0,6.794787952036529
831.0,6.793307640523302
832.0,6.791827220166219
833.0,6.789229036186413
834.0,6.786631864178126
835.0,6.80713391758394
