x,theta
0.0,6.25387597822624
1.0,6.254487904152185
2.0,6.255099974317176
3.0,6.255712188385587
4.0,6.256324547700359
5.0,6.256937051211608
6.0,6.257549699864711
7.0,6.258162493251291
8.0,6.25877543097446
9.0,6.259388513891963
10.0,6.260001741472159
11.0,6.260615114310454
12.0,6.261228632468118
13.0,6.2618422951485115
14.0,6.262456103666601
15.0,6.263070056976268
16.0,6.263684155431719
17.0,6.265343762995464
18.0,6.267002508149773
19.0,6.267617207941903
20.0,6.268232053744356
21.0,6.268847044626547
22.0,6.269462181101574
23.0,6.27007746404098
24.0,6.270692892367492
25.0,6.27130846637111
26.0,6.2719241866332425
27.0,6.272540052755012
28.0,6.273156064928742
29.0,6.273772223513518
30.0,6.274388527831391
31.0,6.27500497844909
32.0,6.275621575918777
33.0,6.276238318946945
34.0,6.276855208842214
35.0,6.277472244994321
36.0,6.278089428118989
37.0,6.2787067574331274
38.0,6.279324233431716
39.0,6.279941856587037
40.0,6.280559625973503
41.0,6.281177542850216
42.0,6.281795606297081
43.0,6.28241381617967
44.0,6.283032173519231
45.0,6.283650678388348
46.0,6.284269330073606
47.0,6.284888128555302
48.0,6.285507075062036
49.0,6.286126168330014
50.0,6.286745409243252
51.0,6.287364797782438
52.0,6.287984333258642
53.0,6.288604016996786
54.0,6.289223847883257
55.0,6.2898438267209755
56.0,6.290463953396241
57.0,6.291084228027088
58.0,6.291704650329557
59.0,6.292325220235554
60.0,6.292945938739479
61.0,6.2935668049405535
62.0,6.294187819225272
63.0,6.2948089818654935
64.0,6.295430293257169
65.0,6.29605175205775
66.0,6.296673359993285
67.0,6.297295116082253
68.0,6.2979170205876756
69.0,6.298539073805408
70.0,6.298111507071795
71.0,6.297685101596656
72.0,6.298307433362986
73.0,6.298929914099901
74.0,6.299552543579232
75.0,6.300175321751354
76.0,6.300798249260723
77.0,6.301421325967816
78.0,6.302044551005565
79.0,6.302667926054468
80.0,6.303291449875118
81.0,6.303915122937241
82.0,6.304538945198509
83.0,6.305162916917411
84.0,6.305787038640823
85.0,6.306411309333036
86.0,6.307035730081012
87.0,6.307660300060007
88.0,6.307233788090528
89.0,6.306808439171142
90.0,6.307433290993913
91.0,6.3080582925015065
92.0,6.30868344296433
93.0,6.309308743753753
94.0,6.309934195539988
95.0,6.310559796026588
96.0,6.311185547136894
97.0,6.3118114488937564
98.0,6.312437501036612
99.0,6.313063703157582
100.0,6.312637859572305
101.0,6.312213181613693
102.0,6.312839667138881
103.0,6.313466303267916
104.0,6.314093088758796
105.0,6.31472002577609
106.0,6.315347113292084
107.0,6.315974352362048
108.0,6.316601741305725
109.0,6.317229281358877
110.0,6.317856972228235
111.0,6.317431736915182
112.0,6.317007669067642
113.0,6.317635643720216
114.0,6.318263770480428
115.0,6.318892049225248
116.0,6.319520476985822
117.0,6.320149059211111
118.0,6.320777791789837
119.0,6.321406675108484
120.0,6.320981918287778
121.0,6.3205583257237095
122.0,6.321187498060759
123.0,6.321816818541642
124.0,6.322446289908349
125.0,6.323075915963045
126.0,6.323705691203244
127.0,6.324335619942353
128.0,6.323911270429782
129.0,6.323488099578412
130.0,6.324118315204366
131.0,6.324748680047421
132.0,6.325379200036515
133.0,6.326009872623345
134.0,6.3266406973171385
135.0,6.349116338695026
136.0,6.347641439010701
137.0,6.348274263288715
138.0,6.346795284982008
139.0,6.347428244861149
140.0,6.348061358075455
141.0,6.3486946242445725
142.0,6.349328043836593
143.0,6.34785267374221
144.0,6.348486229519025
145.0,6.347006776392021
146.0,6.369482096572355
147.0,6.370117654919795
148.0,6.370753370215347
149.0,6.371389235323029
150.0,6.372025258990938
151.0,6.371604387817669
152.0,6.371184686474862
153.0,6.371820999876668
154.0,6.372457468047422
155.0,6.373094092071263
156.0,6.373730868162376
157.0,6.37331028521664
158.0,6.372890871282081
159.0,6.3735279415861825
160.0,6.374165167114931
161.0,6.374802546809633
162.0,6.374382183506896
163.0,6.373962991277182
164.0,6.374600663768632
165.0,6.375238491104824
166.0,6.3758764741216325
167.0,6.376514612709244
168.0,6.376094539483283
169.0,6.37567563823437
170.0,6.376314070018111
171.0,6.376952658177281
172.0,6.377591400575788
173.0,6.3771715496962855
174.0,6.376752871144866
175.0,6.377391908714905
176.0,6.378031101718825
177.0,6.378670450281774
178.0,6.378250821555895
179.0,6.377832366230358
180.0,6.378472010510038
181.0,6.379111810349087
182.0,6.37869233418057
183.0,6.378274033945019
184.0,6.378914128950974
185.0,6.379554381210646
186.0,6.380194788978535
187.0,6.379775536871492
188.0,6.379357460435756
189.0,6.379998164764686
190.0,6.380639025266291
191.0,6.380219927588897
192.0,6.379802005639689
193.0,6.380443163544648
194.0,6.381084477495307
195.0,6.381725948187778
196.0,6.381307075066694
197.0,6.380889379481026
198.0,6.381531147770758
199.0,6.382173072733714
200.0,6.381754354860611
201.0,6.381336814726858
202.0,6.381979038068266
203.0,6.382621418144517
204.0,6.382202855566547
205.0,6.381785472112405
206.0,6.382428150764824
207.0,6.383070987054758
208.0,6.382652579633493
209.0,6.382235352783667
210.0,6.382878487150677
211.0,6.383521780158311
212.0,6.383103529455752
213.0,6.382686459023894
214.0,6.383330051370393
215.0,6.382911886392847
216.0,6.382494902575203
217.0,6.3831387942096995
218.0,6.383782844534707
219.0,6.383364835326617
220.0,6.382948009357833
221.0,6.383592358935694
222.0,6.384236868629053
223.0,6.3838190129922125
224.0,6.383402347958928
225.0,6.384047158734326
226.0,6.406692697118899
227.0,6.405216337529211
228.0,6.4037358896484875
229.0,6.404382737538441
230.0,6.405029744388585
231.0,6.401425115843864
232.0,6.424061080700007
233.0,6.424709969623315
234.0,6.425359018626416
235.0,6.424943998226013
236.0,6.424530159956312
237.0,6.425179514080384
238.0,6.424764583455726
239.0,6.424350831020732
240.0,6.425000489334224
241.0,6.42458564728129
242.0,6.424171987886069
243.0,6.424821951349351
244.0,6.424407198987417
245.0,6.423993628545659
246.0,6.424643896311572
247.0,6.42529432596622
248.0,6.424879734913986
249.0,6.424466327530162
250.0,6.425117062502949
251.0,6.42470256152869
252.0,6.424289244097693
253.0,6.424940285774326
254.0,6.424525874593741
255.0,6.424112647479859
256.0,6.4247639958934
257.0,6.424349674629553
258.0,6.423936538250246
259.0,6.424588193506459
260.0,6.424173961809338
261.0,6.42376091650781
262.0,6.42441288006161
263.0,6.423998738385919
264.0,6.423585784020062
265.0,6.424238054883347
266.0,6.423824004493532
267.0,6.423411141049272
268.0,6.424063719229615
269.0,6.423649759807468
270.0,6.423236988151153
271.0,6.423889875096492
272.0,6.423476006505787
273.0,6.423063325587009
274.0,6.422649473889123
275.0,6.422236811455967
276.0,6.422890155265847
277.0,6.422476394996636
278.0,6.4220638239629935
279.0,6.422717475962521
280.0,6.4223038079462
281.0,6.421891328377328
282.0,6.422545292137173
283.0,6.42213171645971
284.0,6.421719327122439
285.0,6.444476639666846
286.0,6.440862083038155
287.0,6.441518107174389
288.0,6.4421742941332525
289.0,6.438558784539296
290.0,6.46130463729633
291.0,6.460893662732481
292.0,6.460483875027357
293.0,6.461142126953661
294.0,6.460731248577467
295.0,6.460321556546923
296.0,6.460980122394851
297.0,6.460569337468527
298.0,6.460159741174699
299.0,6.459748974037012
300.0,6.459339397115585
301.0,6.459998427137876
302.0,6.45958775454649
303.0,6.459178272752766
304.0,6.458767618476159
305.0,6.458358156997377
306.0,6.459017652257579
307.0,6.458607093580106
308.0,6.458197726057719
309.0,6.457787186269442
310.0,6.457377839756184
311.0,6.458037801071875
312.0,6.457627356089262
313.0,6.45721810482393
314.0,6.456807679288794
315.0,6.456398447619129
316.0,6.455988042190185
317.0,6.455578830379103
318.0,6.456239410287992
319.0,6.455829099995995
320.0,6.45541998371089
321.0,6.455009693246048
322.0,6.454600598108506
323.0,6.454190326437157
324.0,6.453781251488273
325.0,6.454442449955955
326.0,6.454032275096637
327.0,6.453623295771514
328.0,6.453213138685754
329.0,6.452804181760548
330.0,6.452394041247381
331.0,6.451985107436421
332.0,6.474832376559107
333.0,6.47120898296842
334.0,6.4718725790528
335.0,6.470390519845822
336.0,6.49108227456626
337.0,6.491747810923066
338.0,6.491340332016286
339.0,6.490934043701664
340.0,6.490526581412105
341.0,6.490120315466655
342.0,6.489712875880478
343.0,6.489306631279966
344.0,6.488899212298492
345.0,6.488492989898965
346.0,6.488085591964747
347.0,6.487679390850623
348.0,6.487272014488255
349.0,6.48686583588745
350.0,6.486458480416822
351.0,6.486052323234951
352.0,6.486719109837672
353.0,6.486311852796824
354.0,6.485905794804232
355.0,6.485498559319467
356.0,6.485092523887282
357.0,6.484685310381046
358.0,6.484279296492666
359.0,6.483872104252036
360.0,6.4834661125577355
361.0,6.483058942538094
362.0,6.482652972771568
363.0,6.4822458239626926
364.0,6.481839876025916
365.0,6.481432749145988
366.0,6.481026824154689
367.0,6.4806197183038705
368.0,6.480213816450444
369.0,6.479806731414989
370.0,6.4794008536695245
371.0,6.478993789787985
372.0,6.478587934131262
373.0,6.499361891866471
374.0,6.497883260657517
375.0,6.496400695567473
376.0,6.517162601742527
377.0,6.516758078078475
378.0,6.5163547567096884
379.0,6.515950258189164
380.0,6.515546959908065
381.0,6.515142484923871
382.0,6.514739210415556
383.0,6.514334756557773
384.0,6.51393150568245
385.0,6.513527075352229
386.0,6.5131238481695135
387.0,6.512719441314026
388.0,6.512316238027303
389.0,6.51191185442606
390.0,6.511508674012383
391.0,6.511104313719251
392.0,6.50962354407649
393.0,6.509220332929189
394.0,6.508815939407306
395.0,6.508412751941108
396.0,6.508008381947747
397.0,6.507605217792992
398.0,6.50720087144655
399.0,6.5067977320797965
400.0,6.506393408569458
401.0,6.505990292829409
402.0,6.505585992562089
403.0,6.504104566823415
404.0,6.503701420964333
405.0,6.5032970883129195
406.0,6.502893964637657
407.0,6.502489656539936
408.0,6.502086558834698
409.0,6.522924161821109
410.0,6.521445117910986
411.0,6.517806606318416
412.0,6.540787658731631
413.0,6.540385931072244
414.0,6.539985402084241
415.0,6.539583694176592
416.0,6.538103188784049
417.0,6.5377026322587355
418.0,6.537300893949741
419.0,6.5369003612333785
420.0,6.536498647228619
421.0,6.535017820350639
422.0,6.534617258151542
423.0,6.5342155134287765
424.0,6.533814976518379
425.0,6.533413255942243
426.0,6.533012745178219
427.0,6.532611049495088
428.0,6.53112978785034
429.0,6.530729247090342
430.0,6.530327520865399
431.0,6.529927005919795
432.0,6.529525304133976
433.0,6.5280437189740255
434.0,6.527643174667389
435.0,6.527241441764474
436.0,6.526840922755419
437.0,6.5264392166863985
438.0,6.524957308164829
439.0,6.524556759422232
440.0,6.524155023427689
441.0,6.546133803076856
442.0,6.542489827163749
443.0,6.543171463196259
444.0,6.539526700822151
445.0,6.561489701153263
446.0,6.561091702764131
447.0,6.5606925209771845
448.0,6.559211683133519
449.0,6.558813654500341
450.0,6.558414440561869
451.0,6.558016438670009
452.0,6.557617251104141
453.0,6.5561360914532045
454.0,6.555738061389135
455.0,6.555338844351823
456.0,6.553857472084367
457.0,6.55345941406209
458.0,6.553060167262913
459.0,6.5515785832719615
460.0,6.551180496726566
461.0,6.550781221069087
462.0,6.549299425444751
463.0,6.548901309803121
464.0,6.548502005285336
465.0,6.5481039177230755
466.0,6.5477046394614575
467.0,6.546222519951996
468.0,6.545824404728222
469.0,6.54542510001167
470.0,6.543942766841674
471.0,6.543544621950595
472.0,6.564494700118374
473.0,6.563015008890005
474.0,6.559364557987152
475.0,6.581383951676514
476.0,6.580988361145984
477.0,6.5805915811057645
478.0,6.579110457221681
479.0,6.578714837973273
480.0,6.5783180305541435
481.0,6.5768366927518755
482.0,6.576441047312898
483.0,6.576044212758859
484.0,6.574562661934422
485.0,6.573081009386939
486.0,6.572685282605221
487.0,6.5722883646292445
488.0,6.570806499655376
489.0,6.570410745497789
490.0,6.570013799389429
491.0,6.568531722773713
492.0,6.568135941580756
493.0,6.567738967978464
494.0,6.566256677747063
495.0,6.565860871222071
496.0,6.565463871174089
497.0,6.563981368964498
498.0,6.562498760173632
499.0,6.562102872817221
500.0,6.583103376721269
501.0,6.581623429537089
502.0,6.577967661705145
503.0,6.6000399883384375
504.0,6.598558723619348
505.0,6.598165357694782
506.0,6.597770802403879
507.0,6.596289325485763
508.0,6.595895936339531
509.0,6.595501353981028
510.0,6.594019664580038
511.0,6.592537873138532
512.0,6.592144402315185
513.0,6.59174973906989
514.0,6.590267734053626
515.0,6.589874238578297
516.0,6.589479548213106
517.0,6.587997330850563
518.0,6.586515010900847
519.0,6.586121435063987
520.0,6.585726663799392
521.0,6.584244130506768
522.0,6.582761496662478
523.0,6.582367839704617
524.0,6.5819729846733
525.0,6.580490140034328
526.0,6.602629639084583
527.0,6.598969532853559
528.0,6.597485385250536
529.0,6.617430532201162
530.0,6.617039370545619
531.0,6.6166470187397834
532.0,6.615165427452531
533.0,6.6136837376797
534.0,6.613292497945665
535.0,6.612900062904089
536.0,6.611418159626659
537.0,6.609936153116109
538.0,6.609544833493629
539.0,6.609152318271931
540.0,6.6076700980414955
541.0,6.606187776122205
542.0,6.605796377867065
543.0,6.605403782154212
544.0,6.603921246173101
545.0,6.602438607384364
546.0,6.600955866688572
547.0,6.6005643345328195
548.0,6.600171604575422
549.0,6.598688649444107
550.0,6.597205590895875
551.0,6.619392866747717
552.0,6.615728005271706
553.0,6.614243654655979
554.0,6.634231999105928
555.0,6.633842930446342
556.0,6.633452665226876
557.0,6.631970889252791
558.0,6.6304890098054585
559.0,6.62900702762721
560.0,6.628617828250462
561.0,6.628227430790723
562.0,6.6267452338668065
563.0,6.625262934208692
564.0,6.623780531745744
565.0,6.623391199357698
566.0,6.623000667575312
567.0,6.621518051909874
568.0,6.620035331971749
569.0,6.618552509001347
570.0,6.61816304476816
571.0,6.617772377728976
572.0,6.616289343345201
573.0,6.614806202944983
574.0,6.613322965512509
575.0,6.635556337192071
576.0,6.631886904027368
577.0,6.630402373916169
578.0,6.650432394498047
579.0,6.648950566496723
580.0,6.648563481948301
581.0,6.6481751968737015
582.0,6.646693152098742
583.0,6.645211002442551
584.0,6.643728749933366
585.0,6.6422463934462925
586.0,6.6418591223396675
587.0,6.641470650007342
588.0,6.639988079499346
589.0,6.638505405413113
590.0,6.637022627186113
591.0,6.635539746536921
592.0,6.63515228925278
593.0,6.634763628858487
594.0,6.6332805342490175
595.0,6.631797337061805
596.0,6.630314034693683
597.0,6.62883062424639
598.0,6.651108394761863
599.0,6.647434575718492
600.0,6.643760143677909
601.0,6.666020046828848
602.0,6.664538073539795
603.0,6.663055995135629
604.0,6.6615738106336835
605.0,6.6611885916851605
606.0,6.660802170389786
607.0,6.659319772436177
608.0,6.657837270061911
609.0,6.656354663521128
610.0,6.654871953446346
611.0,6.653389138943481
612.0,6.651906220370378
613.0,6.65152070682192
614.0,6.651133989211921
615.0,6.649650856979122
616.0,6.648167620275942
617.0,6.646684279127875
618.0,6.645200834910177
619.0,6.643717293555369
620.0,6.666037698315577
621.0,6.662359680280645
622.0,6.658681046453452
623.0,6.680983574401495
624.0,6.67950147780401
625.0,6.678019271534694
626.0,6.676536961804558
627.0,6.675054548877533
628.0,6.673572030830947
629.0,6.673188613892712
630.0,6.672803992643082
631.0,6.6713212599317515
632.0,6.669838422782554
633.0,6.668355480955405
634.0,6.666872435007754
635.0,6.665389284464709
636.0,6.663906029829839
637.0,6.662422669753923
638.0,6.660939207912058
639.0,6.659455639063715
640.0,6.657971965541655
641.0,6.6575880358447606
642.0,6.678848708864479
643.0,6.675166270042908
644.0,6.695311937562373
645.0,6.693829732793709
646.0,6.692347420919646
647.0,6.690865004049748
648.0,6.689382482978139
649.0,6.687899857278815
650.0,6.686417126540988
651.0,6.684934290322417
652.0,6.684552610083806
653.0,6.68416972120513
654.0,6.682686670994002
655.0,6.681203515459721
656.0,6.679720255423014
657.0,6.678236890894297
658.0,6.676753421348373
659.0,6.675269846316219
660.0,6.673786167652871
661.0,6.672302382337627
662.0,6.692499740756801
663.0,6.688813480867736
664.0,6.708994453752183
665.0,6.707512160935792
666.0,6.706029758453425
667.0,6.704547251626245
668.0,6.70306463918093
669.0,6.701581923108634
670.0,6.701202126831944
671.0,6.700821122096485
672.0,6.699338189638922
673.0,6.697855152301393
674.0,6.696372009534201
675.0,6.694888761643043
676.0,6.693405408041045
677.0,6.691921950180017
678.0,6.690438386300812
679.0,6.688954716771789
680.0,6.687470943121795
681.0,6.6859870644933395
682.0,6.7062199577489565
683.0,6.702529867341667
684.0,6.7227463540986605
685.0,6.721263978914038
686.0,6.7197814969681815
687.0,6.718298910721451
688.0,6.716816219515486
689.0,6.715333422471922
690.0,6.713850519230135
691.0,6.712367510405713
692.0,6.710884396916242
693.0,6.709401177040036
694.0,6.707917851209693
695.0,6.706434420228192
696.0,6.704950883997803
697.0,6.703467241190609
698.0,6.701983492716224
699.0,6.700499641912941
700.0,6.699015681988463
701.0,6.719282429513541
702.0,6.715588701262135
703.0,6.735839020264052
704.0,6.734356575043975
705.0,6.732874032641327
706.0,6.731391380468388
707.0,6.729908624675737
708.0,6.7284257625490795
709.0,6.726942794029647
710.0,6.7254597190107575
711.0,6.723976538250625
712.0,6.722493251791512
713.0,6.72100986047532
714.0,6.719526361449212
715.0,6.718042756630986
716.0,6.716559046672302
717.0,6.715075230718121
718.0,6.713591305977872
719.0,6.712107280708047
720.0,6.732408065872804
721.0,6.728710692038845
722.0,6.748995016404855
723.0,6.747512525082584
724.0,6.746029928200393
725.0,6.7445472239026
726.0,6.741956075104596
727.0,6.739365928655808
728.0,6.737882801400346
729.0,6.736399568080714
730.0,6.734916228496765
731.0,6.733432781567885
732.0,6.7319492298930825
733.0,6.730465570751271
734.0,6.728981804705576
735.0,6.7274979342737495
736.0,6.726013955923712
737.0,6.724529868601245
738.0,6.7448629772934225
739.0,6.74116215186325
740.0,6.761478767079133
741.0,6.759996238831938
742.0,6.7585136020670475
743.0,6.755920864693458
744.0,6.7533291313145725
745.0,6.75184606796104
746.0,6.7503628971523355
747.0,6.748879620072735
748.0,6.747396236457952
749.0,6.745912746072499
750.0,6.744429148942871
751.0,6.742945445770189
752.0,6.741461634741874
753.0,6.739977719703056
754.0,6.737383179064885
755.0,6.758860102301654
756.0,6.752933471078862
757.0,6.77328063762652
758.0,6.771798076422009
759.0,6.770315407817328
760.0,6.768832632550627
761.0,6.767349751607625
762.0,6.765866760758627
763.0,6.764383664420045
764.0,6.762900460215398
765.0,6.761417149326768
766.0,6.758821810744735
767.0,6.756227478980591
768.0,6.754743742117483
769.0,6.7532598967103326
770.0,6.751775948363793
771.0,6.750291887908745
772.0,6.748807719833792
773.0,6.769204044901542
774.0,6.763274134204863
775.0,6.784763121260617
776.0,6.782168484117243
777.0,6.780685687357128
778.0,6.779202785002674
779.0,6.777719772886549
780.0,6.776236653712331
781.0,6.774753427128658
782.0,6.773270093012464
783.0,6.7706731084871095
784.0,6.768077132014547
785.0,6.76659337020741
786.0,6.765109501713525
787.0,6.763625525526869
788.0,6.762141439732709
789.0,6.784794626880341
790.0,6.776629798422476
791.0,6.797038512029296
792.0,6.795555916753663
793.0,6.794073214422575
794.0,6.792590406938977
795.0,6.791107489854241
796.0,6.789624465364703
797.0,6.78702632006744
798.0,6.784429182056243
799.0,6.782945727172496
800.0,6.7814621646106445
801.0,6.779978494452827
802.0,6.778494716852286
803.0,6.775895545657455
804.0,6.773297383928373
805.0,6.771813171781261
806.0,6.792269466369277
807.0,6.788555580087859
808.0,6.8089952871496635
809.0,6.8063963182354215
810.0,6.80379834987486
811.0,6.802315428564967
812.0,6.800832399578169
813.0,6.799349262308262
814.0,6.797866017646257
815.0,6.795266008564802
816.0,6.7926670092053385
817.0,6.79118333333588
818.0,6.789699549100092
819.0,6.788215656483928
820.0,6.785614778530935
821.0,6.783014913687893
822.0,6.803500426252313
823.0,6.799783463278203
824.0,6.820252375180303
825.0,6.817651871815237
826.0,6.8150523657499065
827.0,6.813569448759381
828.0,6.812086424589317
829.0,6.810603291234791
830.0,6.808001906354001
831.0,6.8054015306957325
832.0,6.80391796348362
833.0,6.802434289814748
834.0,6.800950506327503
835.0,6.798348246492353
836.0,6.79574699975295
