x,theta
0.0,6.310084234620902
1.0,6.310677156664553
2.0,6.311270219121575
3.0,6.311863427256931
4.0,6.312456777387659
5.0,6.3140981238832055
6.0,6.31573861235524
7.0,6.316332558069654
8.0,6.316926646352769
9.0,6.317520876941437
10.0,6.31811525220381
11.0,6.318709771114058
12.0,6.319304433278063
13.0,6.319899238858383
14.0,6.32049418830259
15.0,6.322138008624762
16.0,6.323780970610876
17.0,6.324376517084097
18.0,6.32497220698874
19.0,6.325568041871108
20.0,6.326164021057579
21.0,6.326760143693214
22.0,6.327356410619075
23.0,6.3279528225981
24.0,6.328549377742966
25.0,6.329146077934347
26.0,6.3297429225495065
27.0,6.330339912356322
28.0,6.331986896302311
29.0,6.333633022998221
30.0,6.3342306123684935
31.0,6.334828346505475
32.0,6.335426225290618
33.0,6.3360242490005945
34.0,6.336622417980394
35.0,6.337220732179617
36.0,6.337819191084883
37.0,6.338417795584846
38.0,6.339016545187391
39.0,6.339615439954287
40.0,6.340214479878924
41.0,6.340813665594759
42.0,6.341412996688469
43.0,6.34201247388976
44.0,6.342612096153921
45.0,6.343211863668181
46.0,6.3438117775434435
47.0,6.345463315566654
48.0,6.3471139963535705
49.0,6.347714514333262
50.0,6.3483151785608385
51.0,6.348915988418824
52.0,6.349516944970141
53.0,6.35011804792866
54.0,6.35071929640241
55.0,6.351320691535797
56.0,6.3519222330825755
57.0,6.352523921260058
58.0,6.353125755574382
59.0,6.353727736860002
60.0,6.354329864540681
61.0,6.354932138561779
62.0,6.355534560083932
63.0,6.356137127510593
64.0,6.3567398425642665
65.0,6.3573427045704065
66.0,6.357945713214605
67.0,6.358548868994525
68.0,6.359152172119622
69.0,6.35975562220608
70.0,6.360359219454608
71.0,6.360962964301379
72.0,6.3615668561471495
73.0,6.362170896257048
74.0,6.36277508261599
75.0,6.363379417511219
76.0,6.363983899589208
77.0,6.364588529529499
78.0,6.3651933066529764
79.0,6.365798232593647
80.0,6.366403305399366
81.0,6.367008526797953
82.0,6.367613895925146
83.0,6.368219413084546
84.0,6.36882507877413
85.0,6.369430891787246
86.0,6.370036853642908
87.0,6.370642963805665
88.0,6.371249222071945
89.0,6.371855629192275
90.0,6.372462184048899
91.0,6.373068888517565
92.0,6.373675740859525
93.0,6.374282741755771
94.0,6.374889891713373
95.0,6.375497189926733
96.0,6.375049042781278
97.0,6.3746020511422685
98.0,6.375209627735195
99.0,6.375817352847896
100.0,6.376425227276044
101.0,6.377033250905129
102.0,6.377641423349431
103.0,6.378249745491992
104.0,6.378858217065883
105.0,6.379466837595572
106.0,6.380075607940185
107.0,6.380684527360344
108.0,6.381293596972796
109.0,6.381902815854751
110.0,6.382512184298939
111.0,6.383121702844839
112.0,6.383731370459465
113.0,6.384341188873876
114.0,6.38495115663099
115.0,6.384504115626051
116.0,6.3840582328842
117.0,6.384668481225823
118.0,6.385278879975203
119.0,6.385889428852678
120.0,6.3865001277126865
121.0,6.3871109769529895
122.0,6.387721976530408
123.0,6.388333126662602
124.0,6.388944427271127
125.0,6.389555878507572
126.0,6.39016748054123
127.0,6.390779233215959
128.0,6.3903329170499035
129.0,6.389887762347769
130.0,6.390499797832369
131.0,6.391111982855477
132.0,6.391724319331949
133.0,6.392336806721033
134.0,6.3929494467684975
135.0,6.3935622357486395
136.0,6.394175176951926
137.0,6.394788270018893
138.0,6.3943424877817705
139.0,6.393897867976541
140.0,6.394511244270852
141.0,6.395124770747472
142.0,6.395738450415529
143.0,6.396352282796656
144.0,6.396966265341007
145.0,6.397580397431504
146.0,6.39819468453377
147.0,6.397749372127841
148.0,6.397305224242558
149.0,6.3979197951051106
150.0,6.398534516696472
151.0,6.3991493938724275
152.0,6.399764419389719
153.0,6.400379600001102
154.0,6.400994931836969
155.0,6.400550023449078
156.0,6.400106283317186
157.0,6.400721903805277
158.0,6.401337671668692
159.0,6.4019535936854695
160.0,6.402569666849111
161.0,6.403185895957456
162.0,6.40380227796927
163.0,6.42639787949625
164.0,6.424896436657889
165.0,6.4233909360254415
166.0,6.424009316731301
167.0,6.424627850684487
168.0,6.425246538072031
169.0,6.425865379437539
170.0,6.4264843741393065
171.0,6.424982447309944
172.0,6.423476458078156
173.0,6.4460701003182805
174.0,6.446691094852213
175.0,6.447312250440206
176.0,6.447933559123932
177.0,6.448555020590945
178.0,6.448113608830823
179.0,6.447673354181283
180.0,6.44829510764292
181.0,6.448917014780143
182.0,6.449539078002857
183.0,6.450161294887948
184.0,6.44972016311705
185.0,6.449280197219579
186.0,6.449902704961673
187.0,6.450525369064934
188.0,6.451148189834377
189.0,6.4507072719870635
190.0,6.450267521553329
191.0,6.450890633625427
192.0,6.451513901360961
193.0,6.452137323507323
194.0,6.452760901826579
195.0,6.452320270143304
196.0,6.451880805382018
197.0,6.452504676717169
198.0,6.453128703897988
199.0,6.453752886055291
200.0,6.4533124716408
201.0,6.452873225211157
202.0,6.453497701753797
203.0,6.454122334747034
204.0,6.454747123614133
205.0,6.454306925455413
206.0,6.4538678987116285
207.0,6.454492981159547
208.0,6.45511822096168
209.0,6.455743616433146
210.0,6.4553036372431265
211.0,6.4548648291031725
212.0,6.45549051970076
213.0,6.4561163671765485
214.0,6.455676537918329
215.0,6.455237879482091
216.0,6.45586402287848
217.0,6.456490322636732
218.0,6.457116779409937
219.0,6.456677169091819
220.0,6.456238731982488
221.0,6.456865484480566
222.0,6.45749239487656
223.0,6.4570529352554615
224.0,6.456614649265035
225.0,6.457241856065316
226.0,6.457869219773443
227.0,6.45742991084046
228.0,6.45699177682593
229.0,6.457619437927342
230.0,6.458247256265167
231.0,6.4578080992610865
232.0,6.4573701170183
233.0,6.457998233389986
234.0,6.458626507147692
235.0,6.458187501530965
236.0,6.457749671634119
237.0,6.4583782443868145
238.0,6.459006974365742
239.0,6.458568120326362
240.0,6.458130443675387
241.0,6.458759471881372
242.0,6.4593886583569144
243.0,6.4589499589329264
244.0,6.458512434797136
245.0,6.459141920432344
246.0,6.459771565031609
247.0,6.459333016506029
248.0,6.458895646927644
249.0,6.4595255910504505
250.0,6.459087123594344
251.0,6.458649840280749
252.0,6.459280082840991
253.0,6.459910486713717
254.0,6.482677806535193
255.0,6.479035350089646
256.0,6.4796676507294535
257.0,6.480300110767686
258.0,6.476656698356663
259.0,6.499412661720562
260.0,6.500047022880828
261.0,6.500681540249126
262.0,6.500245929258675
263.0,6.499811497398845
264.0,6.500446317566777
265.0,6.500010793283899
266.0,6.499576444867024
267.0,6.500211572038907
268.0,6.500846859536445
269.0,6.500411492680364
270.0,6.499977302579268
271.0,6.500612894893827
272.0,6.500177612822405
273.0,6.49974350927824
274.0,6.500379406804406
275.0,6.499944210248536
276.0,6.499510194224456
277.0,6.500146396566926
278.0,6.499711286889159
279.0,6.499277356654908
280.0,6.499913865475776
281.0,6.499478841225802
282.0,6.499044998396698
283.0,6.499681812883239
284.0,6.499246875442495
285.0,6.498813119533352
286.0,6.49945024040192
287.0,6.499015389707623
288.0,6.4985817207297885
289.0,6.499219148559945
290.0,6.498784384366758
291.0,6.498350803280921
292.0,6.498988537941727
293.0,6.498553860791787
294.0,6.498120367443406
295.0,6.4987584093685555
296.0,6.498323819194177
297.0,6.497890413509708
298.0,6.498528764079751
299.0,6.498094260424544
300.0,6.497660943663966
301.0,6.49829960184303
302.0,6.497865186587184
303.0,6.49743195650467
304.0,6.498070923391104
305.0,6.497636595490526
306.0,6.4972034531864296
307.0,6.496769141696426
308.0,6.496336015959564
309.0,6.496975436669111
310.0,6.496541213907115
311.0,6.496108177824645
312.0,6.496747909315033
313.0,6.51747875049972
314.0,6.515974491791042
315.0,6.516616155375388
316.0,6.512961667975588
317.0,6.535828665347168
318.0,6.536472267524665
319.0,6.536040746414791
320.0,6.535610411040373
321.0,6.535178907610465
322.0,6.534748588507277
323.0,6.535392646862746
324.0,6.53496123318709
325.0,6.534531005855648
326.0,6.535175376526688
327.0,6.534744054275819
328.0,6.534313918174327
329.0,6.533882611386929
330.0,6.533452492872414
331.0,6.534097326718978
332.0,6.533666111168202
333.0,6.533236083800034
334.0,6.532804883931966
335.0,6.532374872857652
336.0,6.533020171991346
337.0,6.532589063137593
338.0,6.532159144431844
339.0,6.531728052787493
340.0,6.5312981506337735
341.0,6.530867075540257
342.0,6.530437190615686
343.0,6.5310831043032564
344.0,6.530652120600905
345.0,6.530222328135643
346.0,6.529791360508028
347.0,6.52936158560005
348.0,6.5289306346633325
349.0,6.528500876501589
350.0,6.529147406599627
351.0,6.528716548081917
352.0,6.5282868823566105
353.0,6.527856041419348
354.0,6.527426393549419
355.0,6.526995568849394
356.0,6.526565939350959
357.0,6.527213087562565
358.0,6.526782352021215
359.0,6.526352816566536
360.0,6.547166292222002
361.0,6.545661338156833
362.0,6.5463105973900895
363.0,6.54264710506645
364.0,6.565605032133938
365.0,6.565176905041774
366.0,6.564749971558399
367.0,6.5643218627903295
368.0,6.563894945826043
369.0,6.563466853372631
370.0,6.563039956104809
371.0,6.562611884178089
372.0,6.562185003714646
373.0,6.562836837185017
374.0,6.562408859115081
375.0,6.561982076054548
376.0,6.561554116274145
377.0,6.561127351429391
378.0,6.560699410339929
379.0,6.560272665177386
380.0,6.559844741818914
381.0,6.5594180150037715
382.0,6.558990110615795
383.0,6.558563402949105
384.0,6.558135516872042
385.0,6.557708828358656
386.0,6.557280960957165
387.0,6.556854291702997
388.0,6.556426442738541
389.0,6.555999792523004
390.0,6.555571963020164
391.0,6.555145332003519
392.0,6.554717520498507
393.0,6.554290908512144
394.0,6.553863117313625
395.0,6.553436523713863
396.0,6.5530087500509
397.0,6.552582177284279
398.0,6.5521544209029585
399.0,6.551727870226387
400.0,6.574777139263304
401.0,6.571106752245527
402.0,6.571762572766943
403.0,6.568091399817874
404.0,6.591127360055218
405.0,6.590702249756234
406.0,6.590278339689071
407.0,6.5898532495238555
408.0,6.588346267419091
409.0,6.587922320709616
410.0,6.587497193908632
411.0,6.5870732673244206
412.0,6.586648161415965
413.0,6.5862242549993795
414.0,6.585799169579488
415.0,6.585375284149393
416.0,6.584950218345263
417.0,6.5845263533539935
418.0,6.5841013081097515
419.0,6.583677464086364
420.0,6.58325243926943
421.0,6.58282861630687
422.0,6.582403611408843
423.0,6.580895709573468
424.0,6.58047184939813
425.0,6.580046806520521
426.0,6.579622967801399
427.0,6.57919794531751
428.0,6.578774127284127
429.0,6.578349126064488
430.0,6.577925328476361
431.0,6.577500347253412
432.0,6.577076571721712
433.0,6.576651612104499
434.0,6.575143023428424
435.0,6.574719214577939
436.0,6.595667924755986
437.0,6.594161953391122
438.0,6.592652036059363
439.0,6.613588748958058
440.0,6.613166335314695
441.0,6.612745124480206
442.0,6.612322734817617
443.0,6.611901544129829
444.0,6.611479173118539
445.0,6.609971629787289
446.0,6.609550405620013
447.0,6.609127998819893
448.0,6.60870679678429
449.0,6.608284410748489
450.0,6.606776531303005
451.0,6.606355293753822
452.0,6.605932872093426
453.0,6.605511657581168
454.0,6.605089257639008
455.0,6.604668065169584
456.0,6.60424568785902
457.0,6.602737355462786
458.0,6.6023161276717985
459.0,6.601893714281985
460.0,6.601472508968449
461.0,6.601050117752607
462.0,6.599541449362597
463.0,6.59912020872892
464.0,6.598697781776565
465.0,6.597188892629468
466.0,6.596767617859811
467.0,6.596345151890361
468.0,6.595923899150954
469.0,6.616931995825709
470.0,6.615425625259078
471.0,6.611741357455671
472.0,6.633822434116361
473.0,6.633403732816284
474.0,6.632983850738086
475.0,6.632565174778762
476.0,6.632145312497535
477.0,6.630637392667559
478.0,6.630218683270158
479.0,6.629798787170806
480.0,6.62829064519218
481.0,6.627871902035494
482.0,6.6274519723924925
483.0,6.6259436087786625
484.0,6.625524831898545
485.0,6.625104867397248
486.0,6.62468611541707
487.0,6.624266173277533
488.0,6.622757473472646
489.0,6.622338687834414
490.0,6.6219187120840886
491.0,6.620409791966608
492.0,6.619990971615692
493.0,6.619570960564587
494.0,6.618061821355788
495.0,6.617642967124027
496.0,6.617222923447322
497.0,6.615713563226642
498.0,6.615294673426888
499.0,6.636357063633582
500.0,6.634850353753194
501.0,6.631160294004545
502.0,6.653298365984909
503.0,6.652882058224719
504.0,6.652464567319541
505.0,6.650956429260965
506.0,6.650540094338034
507.0,6.650122568024528
508.0,6.648614207953422
509.0,6.648197840346526
510.0,6.647780281893773
511.0,6.646271700842938
512.0,6.645855300162907
513.0,6.645437708888814
514.0,6.643928907213343
515.0,6.643512474211107
516.0,6.643094849432224
517.0,6.641585826799421
518.0,6.640076700015655
519.0,6.639660177350173
520.0,6.639242461322205
521.0,6.637733113471569
522.0,6.637316559008177
523.0,6.63689880882368
524.0,6.635389242011939
525.0,6.6349726525378685
526.0,6.634554871058313
527.0,6.654576275502265
528.0,6.653069269566629
529.0,6.649373796173663
530.0,6.671565365010807
531.0,6.671151331846573
532.0,6.670736108025608
533.0,6.669227678781809
534.0,6.667719145418772
535.0,6.66730502223723
536.0,6.666889707727442
537.0,6.665380952937539
538.0,6.664966799551188
539.0,6.664551452755958
540.0,6.663042476598463
541.0,6.66153339440519
542.0,6.661119152970535
543.0,6.660703716428074
544.0,6.659194412441721
545.0,6.657685004520019
546.0,6.6572706749169654
547.0,6.65685514893886
548.0,6.655345518099075
549.0,6.65383578231458
550.0,6.653421364389537
551.0,6.653005749164542
552.0,6.651495793669376
553.0,6.651081336776805
554.0,6.672244158691768
555.0,6.668543857223042
556.0,6.688596086990934
557.0,6.6881841908713255
558.0,6.6877710974754265
559.0,6.686262419053321
560.0,6.684753633996941
561.0,6.684341649908134
562.0,6.6839284707738145
563.0,6.682419464220409
564.0,6.680910351631475
565.0,6.680498280384029
566.0,6.680085012941959
567.0,6.678575678327199
568.0,6.6770662376980425
569.0,6.676654079807733
570.0,6.676240724145281
571.0,6.674731061642277
572.0,6.673221293742984
573.0,6.671711418670405
574.0,6.671299117547164
575.0,6.670885615221664
576.0,6.669375516710637
577.0,6.667865314524832
578.0,6.667452925603456
579.0,6.688661737969866
580.0,6.684956592373609
581.0,6.705052481426179
582.0,6.704642667334426
583.0,6.704231657511805
584.0,6.702722754110184
585.0,6.70121374407443
586.0,6.699704628283563
587.0,6.699294671360306
588.0,6.698883516219183
589.0,6.697374178280334
590.0,6.695864733541079
591.0,6.694355180954744
592.0,6.693945081943909
593.0,6.693533781996116
594.0,6.692024008245312
595.0,6.690514128212257
596.0,6.689004140846748
597.0,6.688593898742091
598.0,6.688182454236376
599.0,6.686672245657377
600.0,6.685161930000611
601.0,6.683651508828184
602.0,6.683241122137318
603.0,6.704494319684386
604.0,6.700784516547529
605.0,6.720922539271484
606.0,6.7194135510722575
607.0,6.719005705543907
608.0,6.718596661775756
609.0,6.717087452691665
610.0,6.715578136578614
611.0,6.71406871193804
612.0,6.712559180442867
613.0,6.712151137657514
614.0,6.711741893085545
615.0,6.710232138772035
616.0,6.708722277921126
617.0,6.707212309797889
618.0,6.7057022349141775
619.0,6.705293993173797
620.0,6.704884548216818
621.0,6.703374250032688
622.0,6.701863845890166
623.0,6.700353334189366
624.0,6.698842711770979
625.0,6.721241691334313
626.0,6.717527832281945
627.0,6.716015941690273
628.0,6.736194535682401
629.0,6.734685371117429
630.0,6.733176098209917
631.0,6.7316667186333845
632.0,6.731260727033394
633.0,6.730853533028714
634.0,6.729343930367953
635.0,6.7278342204649135
636.0,6.72632440245382
637.0,6.724814476779827
638.0,6.723304444355307
639.0,6.7217943036650425
640.0,6.721388000101321
641.0,6.720980490843921
642.0,6.719470128440122
643.0,6.717959656368329
644.0,6.71644907955509
645.0,6.714938394245564
646.0,6.713427603781128
647.0,6.73365959625221
648.0,6.732151551754541
649.0,6.728432793773507
650.0,6.75085706071426
651.0,6.749347744403821
652.0,6.747838314548147
653.0,6.746328778804582
654.0,6.744819134200803
655.0,6.7433093817071565
656.0,6.741799520783886
657.0,6.741395261617356
658.0,6.740989796094858
659.0,6.7394797123094605
660.0,6.737969520716248
661.0,6.73645922100377
662.0,6.734948813697812
663.0,6.733438298349952
664.0,6.731927675509887
665.0,6.730416944325015
666.0,6.728906105541711
667.0,6.727395159999453
668.0,6.749878554342288
669.0,6.746156335763985
670.0,6.74464412790924
671.0,6.764899047212289
672.0,6.763389596213514
673.0,6.761880028524843
674.0,6.760370354656558
675.0,6.758860572522174
676.0,6.757350682674101
677.0,6.755840683641914
678.0,6.754330576706899
679.0,6.752820361455385
680.0,6.751310037576566
681.0,6.750907444574537
682.0,6.750503640579687
683.0,6.748993094167709
684.0,6.747482438622704
685.0,6.745971674522281
686.0,6.744460803085111
687.0,6.742949825068628
688.0,6.741438734370881
689.0,6.761745690341385
690.0,6.758019163456311
691.0,6.778309777275119
692.0,6.77680020128787
693.0,6.775290518818203
694.0,6.773780727814952
695.0,6.77227082690473
696.0,6.770760816396034
697.0,6.769250697731117
698.0,6.767740470512685
699.0,6.766230134047703
700.0,6.7647196893257515
701.0,6.76431886380427
702.0,6.763916827194805
703.0,6.762406158871855
704.0,6.760895382132055
705.0,6.759384496938594
706.0,6.75787350174334
707.0,6.756362397947797
708.0,6.75485118560411
709.0,6.7751940673443585
710.0,6.771463639341292
711.0,6.791790147133632
712.0,6.790280468076851
713.0,6.788770679077032
714.0,6.7872607802843845
715.0,6.785750770287706
716.0,6.784240652470835
717.0,6.782730425251593
718.0,6.781220087992963
719.0,6.779709643144585
720.0,6.778199087653832
721.0,6.776688424167531
722.0,6.775177651433111
723.0,6.7736667691771615
724.0,6.772155778601949
725.0,6.770644678223107
726.0,6.769133471169326
727.0,6.767622152885323
728.0,6.787999256221639
729.0,6.784265123400175
730.0,6.80462583512908
731.0,6.803116063140834
732.0,6.801606181655941
733.0,6.800096191294877
734.0,6.7985860899646156
735.0,6.7970758796228665
736.0,6.795565560454861
737.0,6.794055130962825
738.0,6.792544591953657
739.0,6.791033944059883
740.0,6.789523186262528
741.0,6.788012319299156
742.0,6.78650134242708
743.0,6.78499025594386
744.0,6.782365459564211
745.0,6.7797416602494565
746.0,6.802380086809194
747.0,6.79641362536799
748.0,6.816806799976838
749.0,6.815296960712914
750.0,6.813787002603782
751.0,6.812276934410747
752.0,6.810766757589036
753.0,6.809256470498276
754.0,6.807746073157894
755.0,6.806235565909546
756.0,6.804724948440004
757.0,6.803214222067233
758.0,6.80170338526667
759.0,6.800192439107434
760.0,6.798681383493658
761.0,6.797170216126659
762.0,6.795658940901241
763.0,6.79414755544331
764.0,6.816820975150307
765.0,6.810851618157287
766.0,6.804877340620266
767.0,6.827535042801308
768.0,6.8260250194393635
769.0,6.8245148863453835
770.0,6.823004641594785
771.0,6.821494285955268
772.0,6.819983820467115
773.0,6.8184732447039025
774.0,6.81696255906774
775.0,6.81545176327262
776.0,6.813940857099482
777.0,6.812429840552845
778.0,6.809801770316213
779.0,6.8071747024706895
780.0,6.805663247937176
781.0,6.8041516886941125
782.0,6.8246267882295655
783.0,6.820882110796944
784.0,6.84134074213479
785.0,6.839830774070542
786.0,6.838320692050502
787.0,6.836810500184598
788.0,6.835300197800777
789.0,6.833789785134286
790.0,6.831160903912021
791.0,6.828533021981457
792.0,6.827022169974839
793.0,6.825511207668271
794.0,6.824000134524255
795.0,6.822488949935739
796.0,6.820977655928054
797.0,6.819466253372418
798.0,6.816835995426736
799.0,6.836224642192093
800.0,6.832476642123979
801.0,6.8529663105408005
802.0,6.8514562961879335
803.0,6.849946172558099
804.0,6.848435934819825
805.0,6.846925587575761
806.0,6.845415128405435
807.0,6.842784561243995
808.0,6.840154994409467
809.0,6.838644095451464
810.0,6.837133084886467
811.0,6.835621963732095
812.0,6.834110731566447
813.0,6.832599389050806
814.0,6.829967606861402
815.0,6.82733682889662
816.0,6.847874204585992
817.0,6.844122875823615
818.0,6.8646437386125285
819.0,6.863133685519443
820.0,6.8616235230900955
821.0,6.85899176882041
822.0,6.856361016264771
823.0,6.854850411482211
824.0,6.853339695182434
825.0,6.8518288686482975
826.0,6.850317930368924
827.0,6.847685119060188
828.0,6.845053313290904
829.0,6.843541932397301
830.0,6.842030441933183
831.0,6.840518839982636
832.0,6.839007126283704
833.0,6.8573303737789075
834.0,6.875638765569846
835.0,6.874128689927268
836.0,6.8726185008646326
