x,theta
0.0,6.250486729796961
1.0,6.251095612684033
2.0,6.251704637657731
3.0,6.252313805293305
4.0,6.252923118418607
5.0,6.253532580223265
6.0,6.254142180572792
7.0,6.254751925394686
8.0,6.255361817926236
9.0,6.257016755007768
10.0,6.258670828959701
11.0,6.259281318050753
12.0,6.259891951946052
13.0,6.260502729907074
14.0,6.261113651987195
15.0,6.2617247203054305
16.0,6.262335933064222
17.0,6.262947290437602
18.0,6.263558792913628
19.0,6.264170440655995
20.0,6.26478223327954
21.0,6.26539417067152
22.0,6.266006253190312
23.0,6.266618482974124
24.0,6.267230856183552
25.0,6.267843375145453
26.0,6.268456040231989
27.0,6.26906885036486
28.0,6.269681804407362
29.0,6.2713415072811145
30.0,6.273000343994902
31.0,6.273613902731604
32.0,6.274227606235343
33.0,6.274841456163344
34.0,6.275455453238941
35.0,6.276069594853958
36.0,6.276683882803802
37.0,6.277298317607219
38.0,6.277912898618929
39.0,6.278527625491691
40.0,6.27914249836482
41.0,6.279757518104972
42.0,6.280372684663696
43.0,6.280987997432597
44.0,6.2816034559087015
45.0,6.282219062176594
46.0,6.282834815173075
47.0,6.283450715335505
48.0,6.284066762114264
49.0,6.284682954609615
50.0,6.2852992945798505
51.0,6.285915782303178
52.0,6.286532416547892
53.0,6.287149198090368
54.0,6.287766126517113
55.0,6.2883832026350674
56.0,6.289000426137854
57.0,6.289617797109052
58.0,6.290235314476803
59.0,6.29085298008431
60.0,6.291470793784285
61.0,6.292088754916236
62.0,6.292706863950613
63.0,6.293325120859336
64.0,6.293943523294097
65.0,6.2945620766230235
66.0,6.295180776030364
67.0,6.295799624020894
68.0,6.296418620044136
69.0,6.297037763991668
70.0,6.297657056849694
71.0,6.298276498016918
72.0,6.298896086939493
73.0,6.299515824506386
74.0,6.299085362609091
75.0,6.298656062192428
76.0,6.299276078487836
77.0,6.299896241858882
78.0,6.300516554544728
79.0,6.301137016265713
80.0,6.301757626850545
81.0,6.302378385071798
82.0,6.302999295114432
83.0,6.303620350637232
84.0,6.304241556535551
85.0,6.304862911095633
86.0,6.305484415328905
87.0,6.306106068726876
88.0,6.306727872233509
89.0,6.307349823468485
90.0,6.307971923958206
91.0,6.308594175022051
92.0,6.309216575064667
93.0,6.309839126706407
94.0,6.309409841897917
95.0,6.308981726784779
96.0,6.309604560539832
97.0,6.3102275384194115
98.0,6.310850671511751
99.0,6.311473946877221
100.0,6.312097380130133
101.0,6.312720958696573
102.0,6.313344690241806
103.0,6.31396857030834
104.0,6.314592599884207
105.0,6.315216781810257
106.0,6.315841112458806
107.0,6.338272682330029
108.0,6.336795154847053
109.0,6.337421469120343
110.0,6.338047934294551
111.0,6.338674550442192
112.0,6.337192917027394
113.0,6.337819666357234
114.0,6.338446566789813
115.0,6.339073618585047
116.0,6.3397008216556685
117.0,6.340328176161435
118.0,6.340955682135373
119.0,6.3394776103458526
120.0,6.340105250147218
121.0,6.340733041672223
122.0,6.339250876473557
123.0,6.361691307198406
124.0,6.36232108642259
125.0,6.3629510214830844
126.0,6.363581105547311
127.0,6.364211349107215
128.0,6.364841736334384
129.0,6.36547228023845
130.0,6.365047287504744
131.0,6.36462346144652
132.0,6.365254293055109
133.0,6.365885276154707
134.0,6.366516414544186
135.0,6.367147701850655
136.0,6.367779145446633
137.0,6.368410740739961
138.0,6.367986166371082
139.0,6.367562759480485
140.0,6.368194643531972
141.0,6.36882668070141
142.0,6.369458872199182
143.0,6.370091215335911
144.0,6.370723714548745
145.0,6.370299492116942
146.0,6.3698764369712535
147.0,6.3705092247307675
148.0,6.37114216612396
149.0,6.371775260946045
150.0,6.372408509601144
151.0,6.373041912287746
152.0,6.372618043168387
153.0,6.372195342651608
154.0,6.372829036731041
155.0,6.373462884124301
156.0,6.374096885218542
157.0,6.374731040512664
158.0,6.374307458387555
159.0,6.373885045445718
160.0,6.374519492378276
161.0,6.3751540944973755
162.0,6.375788849912404
163.0,6.376423760320158
164.0,6.376000465380429
165.0,6.37557834033754
166.0,6.376213543280365
167.0,6.376848900714165
168.0,6.377484413021456
169.0,6.378120080016153
170.0,6.377697073019597
171.0,6.377275237319566
172.0,6.3779111975080625
173.0,6.37854731328806
174.0,6.379183583340797
175.0,6.37876079595307
176.0,6.378339182155699
177.0,6.378975746493289
178.0,6.379612465823641
179.0,6.380249340848813
180.0,6.3798267746181025
181.0,6.379405382241536
182.0,6.380042551208703
183.0,6.3806798761040895
184.0,6.381317356730406
185.0,6.380895012197314
186.0,6.380473842105417
187.0,6.381111617682002
188.0,6.381749549328731
189.0,6.382387636720715
190.0,6.3819655140089395
191.0,6.381544567148765
192.0,6.382182950488804
193.0,6.382821489537811
194.0,6.38239951973739
195.0,6.381978727208242
196.0,6.382617562513893
197.0,6.383256554348947
198.0,6.383895702206502
199.0,6.383473955932885
200.0,6.383053388008726
201.0,6.383692832680403
202.0,6.384332434045575
203.0,6.383910842263774
204.0,6.383490427861126
205.0,6.384130326688485
206.0,6.384770381966362
207.0,6.384348944349455
208.0,6.3839286848024415
209.0,6.384569038804514
210.0,6.385209548807836
211.0,6.384788265402001
212.0,6.384368163636182
213.0,6.385008970802048
214.0,6.385649939727436
215.0,6.385228810765611
216.0,6.384808863108134
217.0,6.385450126967527
218.0,6.386091548551647
219.0,6.408731637712293
220.0,6.407252242867102
221.0,6.40576876233655
222.0,6.406412218382755
223.0,6.407055832658074
224.0,6.405576015633642
225.0,6.4040921098824555
226.0,6.426724537092504
227.0,6.4273701892121196
228.0,6.426951952802263
229.0,6.426534890128238
230.0,6.427180844358503
231.0,6.427826955068369
232.0,6.427408876121284
233.0,6.4269919763313865
234.0,6.427638392852764
235.0,6.427220402392798
236.0,6.426803590385298
237.0,6.427450308794974
238.0,6.428097187406777
239.0,6.427679355798077
240.0,6.427262706017977
241.0,6.427909888346363
242.0,6.427492144568383
243.0,6.427075583532513
244.0,6.427723069673341
245.0,6.428370715869384
246.0,6.427953133292618
247.0,6.427536732617185
248.0,6.428184684303112
249.0,6.42776718983162
250.0,6.4273508785207625
251.0,6.427999135342546
252.0,6.427581729242512
253.0,6.427165507663759
254.0,6.427814069458009
255.0,6.427396752565642
256.0,6.4269806197893615
257.0,6.427629488049369
258.0,6.428278516195682
259.0,6.427861361478087
260.0,6.427445391348407
261.0,6.428094726314846
262.0,6.427677660021622
263.0,6.427261779810692
264.0,6.427911421759788
265.0,6.427494444897775
266.0,6.427078654992137
267.0,6.427728603252916
268.0,6.427311716443143
269.0,6.426896017226639
270.0,6.427546272468362
271.0,6.427129476316708
272.0,6.426713866692829
273.0,6.42736442981235
274.0,6.426947723200676
275.0,6.42653220469429
276.0,6.426115514415507
277.0,6.425700013677144
278.0,6.426351031681051
279.0,6.425934433656771
280.0,6.425519022154994
281.0,6.426170346846789
282.0,6.448929744414414
283.0,6.445311738617519
284.0,6.445964976882124
285.0,6.446618377641528
286.0,6.442999418745046
287.0,6.465747359327139
288.0,6.466402673918751
289.0,6.465988817729084
290.0,6.465576153826099
291.0,6.465162320211391
292.0,6.464749672472109
293.0,6.465405447029816
294.0,6.46499170543283
295.0,6.464579151066758
296.0,6.465235238616479
297.0,6.464821590061263
298.0,6.4644091296726245
299.0,6.463995498914173
300.0,6.463583058079692
301.0,6.464239608365595
302.0,6.4638260705697945
303.0,6.463413723295204
304.0,6.464070587081174
305.0,6.463657143378164
306.0,6.463244890571609
307.0,6.462831465204943
308.0,6.462419231592264
309.0,6.463076559294613
310.0,6.4626632278475995
311.0,6.4622510883479904
312.0,6.46183777579494
313.0,6.461425656063717
314.0,6.462083448557706
315.0,6.461670229879424
316.0,6.461258204829257
317.0,6.460845004843961
318.0,6.460432999167097
319.0,6.460019818392183
320.0,6.459607832798461
321.0,6.460266242190613
322.0,6.459853155535733
323.0,6.459441264480141
324.0,6.459028198235835
325.0,6.45861632541488
326.0,6.458203279067433
327.0,6.457791428345608
328.0,6.4584504534241844
329.0,6.458037501672798
330.0,6.45762574224478
331.0,6.480478947974589
332.0,6.47685170982993
333.0,6.477512828712364
334.0,6.473884821504569
335.0,6.496724621779016
336.0,6.497387683086139
337.0,6.496977380058098
338.0,6.4965682722516505
339.0,6.496157989022471
340.0,6.495748902918855
341.0,6.495338640790159
342.0,6.494929572503828
343.0,6.494519331930654
344.0,6.494110286248777
345.0,6.4937000656543375
346.0,6.4932910411625215
347.0,6.493955035485087
348.0,6.493544912573952
349.0,6.493135986045814
350.0,6.4927258832976875
351.0,6.492316978293751
352.0,6.491906896096488
353.0,6.491498013002236
354.0,6.4910879517853814
355.0,6.490679089423608
356.0,6.490269049144537
357.0,6.489860208115061
358.0,6.48945018875002
359.0,6.489041369137944
360.0,6.488631371044683
361.0,6.488222573676175
362.0,6.488887815289075
363.0,6.488477915486719
364.0,6.488069216359243
365.0,6.4876593373884575
366.0,6.487250660015249
367.0,6.486840803161343
368.0,6.4864321464937476
369.0,6.486022310723342
370.0,6.485613677470106
371.0,6.48520386384579
372.0,6.484795247366179
373.0,6.5055762433547955
374.0,6.504094425542988
375.0,6.50260867507005
376.0,6.52337762414917
377.0,6.522970345183509
378.0,6.522564270277144
379.0,6.522157013833308
380.0,6.521750960730628
381.0,6.521343728491416
382.0,6.52093769637947
383.0,6.520530487437988
384.0,6.52012447944368
385.0,6.5197172922095135
386.0,6.51931130690145
387.0,6.518904142818499
388.0,6.51849818001196
389.0,6.518091038382316
390.0,6.51768509953888
391.0,6.517277979828329
392.0,6.516872063928474
393.0,6.516464967282381
394.0,6.5160590743102915
395.0,6.515652000386837
396.0,6.515246131219307
397.0,6.514839080118556
398.0,6.514433233868971
399.0,6.514026205667598
400.0,6.5125417974521085
401.0,6.512135919084784
402.0,6.511728856875315
403.0,6.511323003166851
404.0,6.510915963488962
405.0,6.510510131248793
406.0,6.510103117438689
407.0,6.509697308151409
408.0,6.5092903172353545
409.0,6.5312167859934505
410.0,6.527574801396526
411.0,6.528248740660331
412.0,6.52460597465074
413.0,6.547596936027404
414.0,6.547192519038937
415.0,6.54570892142241
416.0,6.545305653715431
417.0,6.544901203280936
418.0,6.544497961080843
419.0,6.544093535461279
420.0,6.543690316399491
421.0,6.543285914926756
422.0,6.541801877513336
423.0,6.541398627688977
424.0,6.540994194566402
425.0,6.540590969528644
426.0,6.54018656091047
427.0,6.539783361242705
428.0,6.539378976892493
429.0,6.53789450264528
430.0,6.537491272491273
431.0,6.5370868561094895
432.0,6.536683650718736
433.0,6.536279259191936
434.0,6.534794459929664
435.0,6.53439122477608
436.0,6.5339868007821735
437.0,6.533583589950702
438.0,6.533179191279956
439.0,6.531694067911943
440.0,6.531290826955583
441.0,6.530886400956732
442.0,6.530483180095736
443.0,6.551388408308668
444.0,6.549905796304813
445.0,6.546256768504563
446.0,6.5693123757052945
447.0,6.568910555154666
448.0,6.567426600554207
449.0,6.567025934634792
450.0,6.566624081428387
451.0,6.565139915764689
452.0,6.564739219484522
453.0,6.564337337773658
454.0,6.563936668111616
455.0,6.563534811377387
456.0,6.562050320442523
457.0,6.561649621587321
458.0,6.561247735402624
459.0,6.559763030546989
460.0,6.559362302672795
461.0,6.558960386124177
462.0,6.558559684402475
463.0,6.558157794229778
464.0,6.556672765471241
465.0,6.5562720347313785
466.0,6.555870113603227
467.0,6.554384872364423
468.0,6.55398411206108
469.0,6.553582162570578
470.0,6.552096706784255
471.0,6.551695919573142
472.0,6.55129393876728
473.0,6.5733404783495075
474.0,6.569686347809849
475.0,6.568199467651112
476.0,6.589146325243597
477.0,6.58874690470293
478.0,6.587262655564203
479.0,6.586864390522869
480.0,6.586464938967502
481.0,6.584980475776966
482.0,6.58458218503938
483.0,6.584182703811436
484.0,6.582698026921051
485.0,6.582299707547733
486.0,6.5819001979367115
487.0,6.580415307944577
488.0,6.580016960954275
489.0,6.579617422751099
490.0,6.578132319222306
491.0,6.577733944994897
492.0,6.577334378703576
493.0,6.57584906110305
494.0,6.575450658813217
495.0,6.575051064305029
496.0,6.573565533327482
497.0,6.573167104209759
498.0,6.572767480297138
499.0,6.571281736060612
500.0,6.570883281369319
501.0,6.570483627051367
502.0,6.590408645186528
503.0,6.588925455364532
504.0,6.585265206189746
505.0,6.607348918449951
506.0,6.606952989467047
507.0,6.606555868026312
508.0,6.605071250702046
509.0,6.604675293104151
510.0,6.604278142941382
511.0,6.6027933121754785
512.0,6.6013083786500815
513.0,6.600912338783459
514.0,6.600515106441691
515.0,6.599029958756859
516.0,6.598633893126809
517.0,6.5982366341578
518.0,6.5967512721214305
519.0,6.5952658080520195
520.0,6.59486966107238
521.0,6.594472318709862
522.0,6.592986641075925
523.0,6.591500860923929
524.0,6.591104631133831
525.0,6.590707205709151
526.0,6.589221211990505
527.0,6.588824958556458
528.0,6.588427507993281
529.0,6.608399030095612
530.0,6.606915605974493
531.0,6.603250208618647
532.0,6.625385313441136
533.0,6.6239005828243975
534.0,6.623506824132932
535.0,6.623111871408263
536.0,6.621626924098905
537.0,6.620141871843678
538.0,6.619748033845433
539.0,6.619353001328825
540.0,6.617867735497093
541.0,6.6163823663374615
542.0,6.615988448798255
543.0,6.61559333372422
544.0,6.614107750683495
545.0,6.612622065082853
546.0,6.612228066826894
547.0,6.611832870834981
548.0,6.6103469702168525
549.0,6.608860966957202
550.0,6.607374862254943
551.0,6.60698072695326
552.0,6.606585394092612
553.0,6.605099072396783
554.0,6.627299779075372
555.0,6.623630220206891
556.0,6.622142606188547
557.0,6.642142953278658
558.0,6.640658021137831
559.0,6.6402663516815466
560.0,6.639873489913128
561.0,6.638388347418321
562.0,6.636903099895683
563.0,6.636511354528935
564.0,6.636118410545706
565.0,6.634632949381384
566.0,6.633147384773615
567.0,6.63166171642969
568.0,6.631269836780476
569.0,6.630876757655152
570.0,6.6293908742814125
571.0,6.627904888282103
572.0,6.626418798050821
573.0,6.626026784672078
574.0,6.625633570252688
575.0,6.624147266065151
576.0,6.622660856567727
577.0,6.6211743462470025
578.0,6.643421188714441
579.0,6.639747049015966
580.0,6.638259250438679
581.0,6.658301309102114
582.0,6.656816211544111
583.0,6.65642657506443
584.0,6.65603574208815
585.0,6.654550428358952
586.0,6.653065009846401
587.0,6.6515794874311
588.0,6.651189721133569
589.0,6.650798754599229
590.0,6.649313017241951
591.0,6.647827175454452
592.0,6.646341230151499
593.0,6.644855181550987
594.0,6.643369028624292
595.0,6.642979019158794
596.0,6.642587806216788
597.0,6.641101437681577
598.0,6.639614967005016
599.0,6.638128391986143
600.0,6.636641714539451
601.0,6.636251515322087
602.0,6.65744542626166
603.0,6.653766483832271
604.0,6.673848709050496
605.0,6.6723634626771045
606.0,6.6719758001296725
607.0,6.671586937128794
608.0,6.670101474425138
609.0,6.668615905398617
610.0,6.667130233149436
611.0,6.665644455365992
612.0,6.664158574438787
613.0,6.662672587970569
614.0,6.662284629897663
615.0,6.661895468578528
616.0,6.660409266874595
617.0,6.658922960956431
618.0,6.657436550531166
619.0,6.655950035716955
620.0,6.6544634165392225
621.0,6.652976695888569
622.0,6.652588441309305
623.0,6.65219897808737
624.0,6.672336120474071
625.0,6.6686529688190745
626.0,6.688773786834076
627.0,6.687288407381061
628.0,6.686902654217953
629.0,6.68651569919075
630.0,6.685030104901955
631.0,6.683544406532889
632.0,6.682058602899907
633.0,6.680572694587873
634.0,6.679086681614223
635.0,6.677600563669046
636.0,6.676114340931939
637.0,6.674628012890352
638.0,6.6742418562444925
639.0,6.6738544917915235
640.0,6.672367948593127
641.0,6.67088130021321
642.0,6.669394549562746
643.0,6.667907691763162
644.0,6.6664207291116995
645.0,6.686594874617484
646.0,6.682907703396907
647.0,6.703065495458013
648.0,6.7026816404541165
649.0,6.702296581547266
650.0,6.700810981301032
651.0,6.699325276069878
652.0,6.697839466307677
653.0,6.6963535509009375
654.0,6.6948675296334414
655.0,6.693381403934644
656.0,6.691895172391803
657.0,6.690408836445833
658.0,6.688922394448568
659.0,6.687435847718021
660.0,6.685949195041857
661.0,6.684462437685774
662.0,6.684077960695703
663.0,6.683692271815147
664.0,6.68220529993782
665.0,6.680718221318386
666.0,6.700929593024952
667.0,6.697238391720404
668.0,6.7174333848265135
669.0,6.71594779707678
670.0,6.714462101327939
671.0,6.712976302898021
672.0,6.711490397209872
673.0,6.710004386131494
674.0,6.70851827124573
675.0,6.707032049095773
676.0,6.705545721446192
677.0,6.704059288215966
678.0,6.702572749147144
679.0,6.701086105381748
680.0,6.699599355293692
681.0,6.698112499451767
682.0,6.69772979613218
683.0,6.69734587974316
684.0,6.695858809116679
685.0,6.6943716309504
686.0,6.714618576565385
687.0,6.710923536908922
688.0,6.731154072391931
689.0,6.729668403991617
690.0,6.728182628033416
691.0,6.726696746779062
692.0,6.725210758584559
693.0,6.723724664285683
694.0,6.722238463644651
695.0,6.720752156662492
696.0,6.719265743907066
697.0,6.717779225685177
698.0,6.71629260063861
699.0,6.714805870077271
700.0,6.713319033928201
701.0,6.711832091101861
702.0,6.71034504207848
703.0,6.708857889199535
704.0,6.707370627376278
705.0,6.727651464214347
706.0,6.723952778953375
707.0,6.7442171818014955
708.0,6.742731444108351
709.0,6.741245601056491
710.0,6.7397596514423554
711.0,6.738273593367396
712.0,6.73678743077776
713.0,6.735301159898242
714.0,6.733814784064727
715.0,6.7323283020550875
716.0,6.730841712223338
717.0,6.729355017485979
718.0,6.727868215429062
719.0,6.726381307747765
720.0,6.724894292824317
721.0,6.723407172500572
722.0,6.7219199472188365
723.0,6.720432612973823
724.0,6.7407475232936065
725.0,6.737045184375631
726.0,6.757343637817904
727.0,6.7558578449185305
728.0,6.754371941108069
729.0,6.752885934148665
730.0,6.751399819496278
731.0,6.748804375111327
732.0,6.746209935102996
733.0,6.744723395610315
734.0,6.743236749809434
735.0,6.741749997229107
736.0,6.740263137633626
737.0,6.738776172415662
738.0,6.737289098714875
739.0,6.735801920916195
740.0,6.734314633964161
741.0,6.732827236287164
742.0,6.7531745064210895
743.0,6.749468708955618
744.0,6.76979948905165
745.0,6.768313653265494
746.0,6.766827706277347
747.0,6.765341653438526
748.0,6.76385549395328
749.0,6.761258297798996
750.0,6.758662105415908
751.0,6.75717551850942
752.0,6.755688825260307
753.0,6.754202024314132
754.0,6.752715118351155
755.0,6.751228102730032
756.0,6.749740982353558
757.0,6.748253752953488
758.0,6.7467664174022985
759.0,6.74527897903981
760.0,6.765658762246929
761.0,6.761949498088214
762.0,6.782312777149656
763.0,6.779714471814991
764.0,6.7771171685486
765.0,6.775630973969264
766.0,6.774144673007115
767.0,6.772658264270454
768.0,6.77117174860895
769.0,6.769685124868744
770.0,6.768198393858775
771.0,6.766711555241969
772.0,6.764111748435596
773.0,6.761512946815628
774.0,6.760025681792648
775.0,6.75853830728159
776.0,6.757050827194334
777.0,6.77746137782448
778.0,6.773748844249695
779.0,6.794142863883579
780.0,6.792656969867572
781.0,6.791170963973187
782.0,6.788570689570371
783.0,6.785971420038095
784.0,6.784484985829657
785.0,6.782998443837023
786.0,6.781511794138289
787.0,6.780025036683185
788.0,6.778538171512395
789.0,6.775936710243052
790.0,6.773336259249511
791.0,6.771848964067701
792.0,6.770361564150356
793.0,6.768874051885717
794.0,6.789315516557707
795.0,6.785599706500946
796.0,6.806024616630388
797.0,6.803423020908184
798.0,6.800822432171181
799.0,6.799336197976153
800.0,6.797849854090302
801.0,6.796363403607721
802.0,6.79487684425515
803.0,6.793390177013919
804.0,6.790787388353351
805.0,6.788185608048217
806.0,6.786698510441184
807.0,6.785211303098578
808.0,6.783723989306601
809.0,6.782236565089107
810.0,6.802706143101702
811.0,6.796757023837159
812.0,6.81721103511137
813.0,6.815725115034752
814.0,6.814239092445973
815.0,6.812752959591151
816.0,6.810149335292309
817.0,6.807546717766122
818.0,6.806060150868035
819.0,6.804573476291381
820.0,6.803086692436246
821.0,6.801599799765391
822.0,6.798995139675327
823.0,6.796391491458657
824.0,6.794904166251904
825.0,6.793416732593116
826.0,6.791929187081585
827.0,6.810193812101275
828.0,6.828443528995187
829.0,6.826957614499342
830.0,6.82547159162106
831.0,6.82398546012552
832.0,6.82138029486552
833.0,6.818776138589456
834.0,6.817289571688583
835.0,6.815802895631926
836.0,6.814316111629211
