x,theta
0.0,6.336245304207182
1.0,6.336838391509978
2.0,6.337431621448921
3.0,6.338024995954818
4.0,6.338618512794916
5.0,6.339212173832671
6.0,6.3408546421070255
7.0,6.342496255409969
8.0,6.343090512477239
9.0,6.343684913223086
10.0,6.34427945808217
11.0,6.344874147124365
12.0,6.345468979920113
13.0,6.346063956760084
14.0,6.346659077452074
15.0,6.347254342919584
16.0,6.347849751796836
17.0,6.349494925793401
18.0,6.351139245478443
19.0,6.351735253229286
20.0,6.35233140643053
21.0,6.35292770391866
22.0,6.353524145841867
23.0,6.354120732481114
24.0,6.354717463997375
25.0,6.355314340401414
26.0,6.355911361289387
27.0,6.356508527595615
28.0,6.357105838731059
29.0,6.357703295672344
30.0,6.358300896618545
31.0,6.358898643203823
32.0,6.360547446641
33.0,6.3621953950208905
34.0,6.362793744256869
35.0,6.363392238878745
36.0,6.363990878387902
37.0,6.364589663588703
38.0,6.365188595628325
39.0,6.365787672753164
40.0,6.366386894666164
41.0,6.366986263308263
42.0,6.367585777679892
43.0,6.368185438102664
44.0,6.368785244913056
45.0,6.369385197888398
46.0,6.369985296748162
47.0,6.3705855410353465
48.0,6.371185932326746
49.0,6.371786469473101
50.0,6.372387153927335
51.0,6.37298798434955
52.0,6.373588960397072
53.0,6.374190084748079
54.0,6.374791354562582
55.0,6.375392771825325
56.0,6.375994334927668
57.0,6.376596046004906
58.0,6.377197902458896
59.0,6.377799906747008
60.0,6.378402058097407
61.0,6.37900435577869
62.0,6.37960680191712
63.0,6.380209394300266
64.0,6.380812134183856
65.0,6.38141502219036
66.0,6.382018056485002
67.0,6.382621238708623
68.0,6.383224567319807
69.0,6.383828045769064
70.0,6.384431669924432
71.0,6.385035441855244
72.0,6.385639361180353
73.0,6.38624343054704
74.0,6.386847646147821
75.0,6.387452009054094
76.0,6.388056520047066
77.0,6.388661181519112
78.0,6.3892659891710295
79.0,6.389870945450262
80.0,6.390476049878899
81.0,6.391081302874419
82.0,6.391686702594704
83.0,6.3922922520822425
84.0,6.392897951628761
85.0,6.3935037983807135
86.0,6.394109791677117
87.0,6.394715936722648
88.0,6.395322228962051
89.0,6.395928670494385
90.0,6.3965352609664805
91.0,6.39714200080779
92.0,6.397748888196347
93.0,6.398355925245411
94.0,6.398963111266042
95.0,6.399570447193099
96.0,6.400177931347891
97.0,6.400785566419309
98.0,6.401393348859962
99.0,6.402001282306081
100.0,6.402609364523542
101.0,6.403217596450844
102.0,6.403825978162594
103.0,6.404434509391471
104.0,6.403986230274796
105.0,6.403539107136304
106.0,6.4041479176867995
107.0,6.404756878790884
108.0,6.4053659898296615
109.0,6.405975250859477
110.0,6.4065846618433255
111.0,6.40719422293882
112.0,6.4078039339733905
113.0,6.40841379536392
114.0,6.409023807960821
115.0,6.409633970599728
116.0,6.410244282833638
117.0,6.410854746663482
118.0,6.4114653601353595
119.0,6.411017937138347
120.0,6.410571670267139
121.0,6.411182565864593
122.0,6.411793612330662
123.0,6.412404809919387
124.0,6.413016158819566
125.0,6.413627657523044
126.0,6.4142393083277724
127.0,6.414851110602342
128.0,6.415463063187502
129.0,6.416075167148357
130.0,6.415628342543627
131.0,6.415182676630735
132.0,6.4157950639759065
133.0,6.416407602618136
134.0,6.417020293483219
135.0,6.417633135315356
136.0,6.418246128913289
137.0,6.418859274280543
138.0,6.4194725712790515
139.0,6.420086020137909
140.0,6.4196397322486405
141.0,6.41919460453709
142.0,6.419808337877306
143.0,6.420422223748673
144.0,6.421036261448613
145.0,6.421650451182849
146.0,6.422264793592568
147.0,6.422879288431346
148.0,6.423493935137294
149.0,6.423048120368996
150.0,6.4226034673682335
151.0,6.4232184003808825
152.0,6.423833485539056
153.0,6.424448723608521
154.0,6.425064114634807
155.0,6.425679658064986
156.0,6.4252341854956825
157.0,6.42478987531134
158.0,6.425405706069682
159.0,6.426021689300306
160.0,6.426637825815369
161.0,6.427254115628955
162.0,6.427870558230708
163.0,6.427425429291958
164.0,6.426981464514007
165.0,6.427598195145542
166.0,6.42821507870427
167.0,6.428832115911142
168.0,6.429449306609186
169.0,6.4300666509916695
170.0,6.429621866994616
171.0,6.4291782487169655
172.0,6.4297958816778475
173.0,6.4304136688972235
174.0,6.431031609618451
175.0,6.431649703988555
176.0,6.431205199259928
177.0,6.430761860835574
178.0,6.431380244707675
179.0,6.431998782677212
180.0,6.432617475559944
181.0,6.43323632248277
182.0,6.432792097065416
183.0,6.432349039959703
184.0,6.4329681770502205
185.0,6.433587467815535
186.0,6.4342069144691365
187.0,6.434826514812563
188.0,6.434382570893568
189.0,6.43393979624139
190.0,6.434559687109527
191.0,6.435179733366176
192.0,6.435799935091431
193.0,6.435356205230569
194.0,6.434913645280311
195.0,6.435534137838303
196.0,6.436154785299955
197.0,6.436775588510386
198.0,6.436332073398724
199.0,6.435889728826055
200.0,6.436510823803616
201.0,6.437132075551993
202.0,6.437753481960122
203.0,6.437310181541527
204.0,6.4368680520679575
205.0,6.437489751348963
206.0,6.438111606890374
207.0,6.437668450407983
208.0,6.437226471960187
209.0,6.437848623591059
210.0,6.438470922930733
211.0,6.439093389625214
212.0,6.461786983687361
213.0,6.458149840409433
214.0,6.45877417578339
215.0,6.459398667270392
216.0,6.4600233154742455
217.0,6.458518517526429
218.0,6.457009643501692
219.0,6.479695707043703
220.0,6.480322389962652
221.0,6.480949234570119
222.0,6.480509093933094
223.0,6.480070125653924
224.0,6.480697262674262
225.0,6.481324557589268
226.0,6.4808845727947
227.0,6.480445756262434
228.0,6.481073349072922
229.0,6.481701100782523
230.0,6.481261265991364
231.0,6.480822604779249
232.0,6.481450653794049
233.0,6.4820788608111855
234.0,6.481639179733861
235.0,6.481200670642423
236.0,6.481829177401288
237.0,6.48245784171187
238.0,6.482018312727035
239.0,6.481579957887632
240.0,6.482208921846734
241.0,6.482838044565732
242.0,6.482398669567544
243.0,6.481960467868035
244.0,6.482589890317463
245.0,6.482150597456119
246.0,6.481712479579947
247.0,6.482342202851662
248.0,6.482972084930481
249.0,6.4825329457718155
250.0,6.482094982749288
251.0,6.482725165514154
252.0,6.483355507929929
253.0,6.482916523123691
254.0,6.482478714389067
255.0,6.483109357930886
256.0,6.482670455929075
257.0,6.482232732150955
258.0,6.482863677605451
259.0,6.483494782209192
260.0,6.483056035505854
261.0,6.482618467044681
262.0,6.483249873868225
263.0,6.482811210897019
264.0,6.482373727016778
265.0,6.483005436121601
266.0,6.4825668574393305
267.0,6.482129458795072
268.0,6.482761470746922
269.0,6.482322975904012
270.0,6.481885662376591
271.0,6.48251797735103
272.0,6.483150453506546
273.0,6.482712114176671
274.0,6.482274957019911
275.0,6.48290773636419
276.0,6.482469484589657
277.0,6.482032411419475
278.0,6.482665494653347
279.0,6.482227324913026
280.0,6.481790337635353
281.0,6.482423728925625
282.0,6.5052504789074845
283.0,6.501599992599537
284.0,6.502235295311493
285.0,6.502870759701537
286.0,6.499219311276519
287.0,6.522034730370059
288.0,6.522672108612319
289.0,6.522236687200689
290.0,6.521802445587632
291.0,6.522440134885137
292.0,6.522004799027108
293.0,6.521570644081443
294.0,6.521135321699056
295.0,6.520701182151548
296.0,6.521339325538747
297.0,6.5209040918291805
298.0,6.5204700401809035
299.0,6.521108492275772
300.0,6.520673346433348
301.0,6.52023938284227
302.0,6.520878145029876
303.0,6.5204430874119765
304.0,6.520009212320751
305.0,6.520648283477136
306.0,6.5202133136904905
307.0,6.5197795278843245
308.0,6.519344572931971
309.0,6.518910802919628
310.0,6.5195503310429
311.0,6.51911546468655
312.0,6.518681783795245
313.0,6.519321622161819
314.0,6.518886844403362
315.0,6.5184532525112076
316.0,6.518018489994006
317.0,6.517584913831918
318.0,6.518225210965717
319.0,6.517790537000337
320.0,6.517357050293263
321.0,6.516922391212439
322.0,6.516488920990049
323.0,6.5171296775136085
324.0,6.5166951080007465
325.0,6.516261727141227
326.0,6.515827172582547
327.0,6.515393808000354
328.0,6.51603502409732
329.0,6.515600559130029
330.0,6.5151672839529695
331.0,6.514732834342958
332.0,6.514299576548183
333.0,6.514941251449869
334.0,6.535714302513071
335.0,6.534207666494638
336.0,6.534851289504132
337.0,6.531190079254273
338.0,6.554103636796391
339.0,6.553671843305338
340.0,6.55324123518362
341.0,6.5538869549409995
342.0,6.5534552527440795
343.0,6.553024738574635
344.0,6.552593053324436
345.0,6.552162555514322
346.0,6.551730886528162
347.0,6.551300406748986
348.0,6.5519467452985864
349.0,6.551515168301982
350.0,6.551084781337785
351.0,6.550653222131402
352.0,6.550222852867812
353.0,6.549791309890985
354.0,6.54936095797877
355.0,6.550007915865713
356.0,6.549576465801152
357.0,6.549146207034326
358.0,6.548714773813678
359.0,6.548284533272188
360.0,6.547853117001743
361.0,6.547422893831403
362.0,6.546991494618112
363.0,6.546561289691823
364.0,6.546129908296173
365.0,6.545699720434449
366.0,6.546347604000594
367.0,6.54591631531337
368.0,6.545486221866433
369.0,6.54505495051724
370.0,6.5446248743206965
371.0,6.5441936212928695
372.0,6.543763563975084
373.0,6.543332327792314
374.0,6.542902287979359
375.0,6.54247106789353
376.0,6.54204104887414
377.0,6.565051423039009
378.0,6.56138274102112
379.0,6.562033356918306
380.0,6.558363892410185
381.0,6.581360972050575
382.0,6.580932377206544
383.0,6.5805049761777425
384.0,6.580076403305121
385.0,6.579649020971189
386.0,6.579220465047243
387.0,6.578793103450778
388.0,6.5783645659494425
389.0,6.577937224013638
390.0,6.5775087046952905
391.0,6.577081382740033
392.0,6.576652882769686
393.0,6.576225580017045
394.0,6.575797098225301
395.0,6.575369814208635
396.0,6.574941352156252
397.0,6.574514087916853
398.0,6.57408564470326
399.0,6.573658400224758
400.0,6.57322997585937
401.0,6.572802750459644
402.0,6.572374345709747
403.0,6.571947140140388
404.0,6.571518754551391
405.0,6.5710915683755715
406.0,6.570663202126795
407.0,6.5702360364627665
408.0,6.56980768804074
409.0,6.569380542036349
410.0,6.56895221419893
411.0,6.567441951012391
412.0,6.567014768383338
413.0,6.56658640151295
414.0,6.566159239205035
415.0,6.589244031981792
416.0,6.585568043909333
417.0,6.584056331656669
418.0,6.604960930208293
419.0,6.604535155733927
420.0,6.604110572286309
421.0,6.6036848095236
422.0,6.6032602491250145
423.0,6.60283450890271
424.0,6.602409968389473
425.0,6.601984247345285
426.0,6.601559727985148
427.0,6.601134028132776
428.0,6.599624444096079
429.0,6.5991998877722295
430.0,6.59877415021581
431.0,6.59834961511573
432.0,6.597923898345499
433.0,6.59749938427359
434.0,6.597073688812102
435.0,6.596649196008528
436.0,6.596223520867454
437.0,6.594713365984319
438.0,6.5942888368418195
439.0,6.5938631237665035
440.0,6.593438616255625
441.0,6.59301292495342
442.0,6.59258843825701
443.0,6.592162767224728
444.0,6.590652158642001
445.0,6.590227634889686
446.0,6.5898019279810995
447.0,6.589377426314947
448.0,6.588951739205207
449.0,6.61101838161585
450.0,6.60733584467485
451.0,6.605823689878491
452.0,6.626789206223933
453.0,6.626366060930181
454.0,6.625944115574221
455.0,6.625520992344768
456.0,6.624011333321242
457.0,6.623589354590081
458.0,6.623166193486547
459.0,6.622744237925843
460.0,6.622321099055071
461.0,6.620811104634399
462.0,6.6203891137366995
463.0,6.61996593796669
464.0,6.619543970602024
465.0,6.619120817233721
466.0,6.617610484895756
467.0,6.617188482398362
468.0,6.616765293021622
469.0,6.616343313119948
470.0,6.615920145866234
471.0,6.614409475694536
472.0,6.6139874620552845
473.0,6.613564259179171
474.0,6.612053367655015
475.0,6.611631318925653
476.0,6.61120807878784
477.0,6.610786054288212
478.0,6.610362836301782
479.0,6.608851606793351
480.0,6.608429550219647
481.0,6.62946482972437
482.0,6.627956243304112
483.0,6.624266926946348
484.0,6.6463766045539785
485.0,6.6459571123914145
486.0,6.6455364312837375
487.0,6.644026413499525
488.0,6.643606885695377
489.0,6.6431861693927345
490.0,6.6416759301571915
491.0,6.641256368380141
492.0,6.640835619088797
493.0,6.639325157646155
494.0,6.638905561731477
495.0,6.638484777863134
496.0,6.636974095194525
497.0,6.636554466128757
498.0,6.636133647052809
499.0,6.634622743216177
500.0,6.634203080703557
501.0,6.633782227766886
502.0,6.632271103154935
503.0,6.631851406792848
504.0,6.631430519140338
505.0,6.629919172604026
506.0,6.629499442652069
507.0,6.629078520261821
508.0,6.627566953799352
509.0,6.627147190356254
510.0,6.648235103891153
511.0,6.646726194384939
512.0,6.64303126967576
513.0,6.665196198683496
514.0,6.663685981020322
515.0,6.6632687540628766
516.0,6.66285034101567
517.0,6.661339900995657
518.0,6.66092264309404
519.0,6.660504195723732
520.0,6.658993533544056
521.0,6.658576244217798
522.0,6.6581577641131915
523.0,6.656646880140656
524.0,6.656229558986951
525.0,6.655811045561855
526.0,6.654299939658152
527.0,6.652788728514508
528.0,6.652371317648104
529.0,6.651952712912397
530.0,6.650441279800212
531.0,6.650023836872087
532.0,6.649605199756543
533.0,6.648093544428633
534.0,6.6465817841947725
535.0,6.646164250956424
536.0,6.645745523172636
537.0,6.665789501742026
538.0,6.6642803105604855
539.0,6.660580158253495
540.0,6.682796795476229
541.0,6.68128630360863
542.0,6.68087127606767
543.0,6.680455058155452
544.0,6.6789443418035646
545.0,6.678529285487684
546.0,6.67811303567413
547.0,6.676602097407809
548.0,6.675091053215844
549.0,6.674675907739328
550.0,6.67425956811001
551.0,6.67274830197875
552.0,6.671236929585788
553.0,6.670821696178294
554.0,6.670405266185348
555.0,6.668893672248018
556.0,6.6673819712267886
557.0,6.666966649575201
558.0,6.6665501291229035
559.0,6.665038206872801
560.0,6.663526178178238
561.0,6.663110767165854
562.0,6.662694161461985
563.0,6.682783471898446
564.0,6.679078680842238
565.0,6.700249607111644
566.0,6.6998355613430505
567.0,6.698324822945317
568.0,6.696813973859157
569.0,6.696401039366776
570.0,6.6959869094499425
571.0,6.694475839159146
572.0,6.692964662441057
573.0,6.692551640413797
574.0,6.692137421475145
575.0,6.690626022234433
576.0,6.689114516176929
577.0,6.687602904093609
578.0,6.687189737576645
579.0,6.686775372094303
580.0,6.685263536871211
581.0,6.683751595052456
582.0,6.682239547547411
583.0,6.681826236784502
584.0,6.681411724021629
585.0,6.679899456662028
586.0,6.678387075777216
587.0,6.7007179685059555
588.0,6.697008731017931
589.0,6.695495073903771
590.0,6.71561202814808
591.0,6.714101073188651
592.0,6.713690203756606
593.0,6.71327813478068
594.0,6.711766960413158
595.0,6.710255676579692
596.0,6.708744286618931
597.0,6.707232789368327
598.0,6.7068217187060455
599.0,6.706409448768021
600.0,6.704897728544665
601.0,6.703385900650218
602.0,6.701873966781186
603.0,6.701462752990963
604.0,6.701050337544942
605.0,6.699538180212286
606.0,6.698025916124095
607.0,6.6965135460503475
608.0,6.695001065206029
609.0,6.694589652469823
610.0,6.694177034763868
611.0,6.714350643501163
612.0,6.710636530189504
613.0,6.7307939098953184
614.0,6.730385047995711
615.0,6.729974982947724
616.0,6.72846372458924
617.0,6.7269523606641
618.0,6.7254408875289045
619.0,6.72392930686339
620.0,6.722417619318861
621.0,6.722008498594775
622.0,6.721598175246065
623.0,6.720086264235995
624.0,6.718574245786911
625.0,6.717062119453303
626.0,6.715549885364467
627.0,6.714037545084004
628.0,6.713628166558522
629.0,6.713217584404774
630.0,6.711705019805088
631.0,6.710192349757371
632.0,6.708679569549467
633.0,6.728892047542743
634.0,6.725173658862175
635.0,6.746474163416373
636.0,6.746066034659947
637.0,6.744554719088207
638.0,6.743043295187
639.0,6.741531762557955
640.0,6.740020122393339
641.0,6.73850837329055
642.0,6.736996515662156
643.0,6.736589282523106
644.0,6.736180844437726
645.0,6.734668763867774
646.0,6.733156575655627
647.0,6.731644279436324
648.0,6.7301318760280395
649.0,6.72861936361155
650.0,6.727106743491838
651.0,6.725594015051541
652.0,6.725186412361232
653.0,6.7247775985736595
654.0,6.723264647774414
655.0,6.743516240643146
656.0,6.739793564328622
657.0,6.760028870789441
658.0,6.758517406140257
659.0,6.757005834199319
660.0,6.755494152829577
661.0,6.753982364290991
662.0,6.753577066470946
663.0,6.753170564156655
664.0,6.751658550340444
665.0,6.750146429559919
666.0,6.7486342005258635
667.0,6.7471218627680045
668.0,6.7456094165299945
669.0,6.744096862824243
670.0,6.742584200527858
671.0,6.741071428767121
672.0,6.739558550738877
673.0,6.738045562500581
674.0,6.736532469206324
675.0,6.759035684544571
676.0,6.755309331369389
677.0,6.753794977697282
678.0,6.774067732479509
679.0,6.772556138256412
680.0,6.771044430610594
681.0,6.769532615729446
682.0,6.76802069086736
683.0,6.766508657224023
684.0,6.7649965160175185
685.0,6.763484264419972
686.0,6.7619719051725795
687.0,6.76045943627814
688.0,6.758946859477675
689.0,6.757434173604651
690.0,6.755921379331795
691.0,6.754408475159892
692.0,6.752895464512299
693.0,6.752491436800113
694.0,6.752086195956906
695.0,6.750572960663746
696.0,6.770897852874384
697.0,6.7671671820527735
698.0,6.7874757318363805
699.0,6.785964017697488
700.0,6.784452190989299
701.0,6.782940259554067
702.0,6.781428217505784
703.0,6.7799160663536
704.0,6.778403805961439
705.0,6.776891436258744
706.0,6.775378957797059
707.0,6.7738663690385295
708.0,6.772353672042378
709.0,6.770840866767045
710.0,6.769327951120033
711.0,6.76781492645415
712.0,6.766301792948333
713.0,6.764788550344122
714.0,6.763275202194841
715.0,6.7836342138077725
716.0,6.779899839299901
717.0,6.800242486997519
718.0,6.798730670868309
719.0,6.797218747120851
720.0,6.795706713008592
721.0,6.794194571638222
722.0,6.792682318291057
723.0,6.791169956138091
724.0,6.789657484189135
725.0,6.788144902729329
726.0,6.786632213044442
727.0,6.785119412264564
728.0,6.7836065031665385
729.0,6.782093483689671
730.0,6.78058035539015
731.0,6.779067116540666
732.0,6.777553770447028
733.0,6.77604031510775
734.0,6.7964336364903915
735.0,6.792695549515258
736.0,6.8130724775924705
737.0,6.811560573788988
738.0,6.810048561563292
739.0,6.808536437940269
740.0,6.807024204993759
741.0,6.805511861314635
742.0,6.803999408238781
743.0,6.802486844544269
744.0,6.800974171539941
745.0,6.799461388294581
746.0,6.797948495296325
747.0,6.796435492531806
748.0,6.793807971087929
749.0,6.791181447496214
750.0,6.789668011962682
751.0,6.788154459786
752.0,6.808580363945751
753.0,6.804838762694089
754.0,6.8252482430653885
755.0,6.823736266229666
756.0,6.822224177574
757.0,6.820711977215282
758.0,6.819199668409247
759.0,6.817687249214373
760.0,6.8161747189463355
761.0,6.814662079150295
762.0,6.813149328548597
763.0,6.811636468460712
764.0,6.8101234975500375
765.0,6.8086104161312235
766.0,6.805981092797062
767.0,6.803352768773173
768.0,6.801839252495462
769.0,6.800325622880784
770.0,6.820784270060628
771.0,6.817039146262033
772.0,6.837481347144646
773.0,6.83596930445794
774.0,6.834457148359981
775.0,6.83294488640513
776.0,6.831432510656349
777.0,6.829920024307498
778.0,6.827289884616754
779.0,6.824660742126937
780.0,6.823147816633671
781.0,6.821634781929056
782.0,6.8201216355550685
783.0,6.818608379688271
784.0,6.817095012318681
785.0,6.815581534376463
786.0,6.81406794585628
787.0,6.812554255383674
788.0,6.833045812987123
789.0,6.8248254054115165
790.0,6.847535552260879
791.0,6.846023347781788
792.0,6.844511029492892
793.0,6.84299860145677
794.0,6.841486061674665
795.0,6.839973410214945
796.0,6.838460648414653
797.0,6.835828488330002
798.0,6.833197328181853
799.0,6.831684126002209
800.0,6.83017081256498
801.0,6.828657388756845
802.0,6.827143854795644
803.0,6.825630208609937
804.0,6.824116454958805
805.0,6.844639155272489
806.0,6.8364088586004925
807.0,6.859153399802629
808.0,6.857641147733659
809.0,6.85612878760076
810.0,6.854616314115333
811.0,6.85310372989575
812.0,6.851591033846624
813.0,6.848957348155345
814.0,6.846324664212183
815.0,6.844811525600619
816.0,6.843298276514048
817.0,6.8417849150436325
818.0,6.840271443763804
819.0,6.837636705064206
820.0,6.835002971455573
821.0,6.8555550033733965
822.0,6.851799891847875
823.0,6.872335408059641
824.0,6.870823234807062
825.0,6.869310949386168
826.0,6.866676243281738
827.0,6.864042535331571
828.0,6.862529804792132
829.0,6.861016962281276
830.0,6.85950400900834
831.0,6.857990944128801
832.0,6.855355175902403
833.0,6.852720412314049
834.0,6.851206904076356
835.0,6.849693282455142
836.0,6.848179549611942
