x,theta
0.0,6.336544035629714
1.0,6.337130590825623
2.0,6.337717290776418
3.0,6.338304133620362
4.0,6.339940343074431
5.0,6.341575697798021
6.0,6.342163136846807
7.0,6.342750719132226
8.0,6.34333844481737
9.0,6.34392631483405
10.0,6.344514328215773
11.0,6.34510248525708
12.0,6.345690786162116
13.0,6.346279230993126
14.0,6.346867819755531
15.0,6.347456552547889
16.0,6.3480454295077635
17.0,6.348634450503674
18.0,6.349223615842369
19.0,6.349812926006159
20.0,6.350402379224022
21.0,6.35099197768082
22.0,6.351581720648717
23.0,6.352171607052732
24.0,6.352761638846687
25.0,6.354402830650741
26.0,6.356043167048753
27.0,6.356633799744543
28.0,6.357224576570488
29.0,6.357815499049565
30.0,6.358406566035434
31.0,6.358997778510123
32.0,6.359589135831648
33.0,6.360180638667089
34.0,6.360772286041701
35.0,6.361364078823556
36.0,6.361956016992345
37.0,6.3625481007546725
38.0,6.363140329787335
39.0,6.363732704268855
40.0,6.364325224740369
41.0,6.364917890634018
42.0,6.365510702173864
43.0,6.36610365965349
44.0,6.366696762832596
45.0,6.367290011591955
46.0,6.367883406748021
47.0,6.368476947231251
48.0,6.369070634621565
49.0,6.369664467680003
50.0,6.370258447568048
51.0,6.370852572725738
52.0,6.3714468445551375
53.0,6.372041263252072
54.0,6.372635827816346
55.0,6.373230538983734
56.0,6.37382539740355
57.0,6.374420401418092
58.0,6.375015553009554
59.0,6.375610850561259
60.0,6.376206295338349
61.0,6.376801886991927
62.0,6.377397625122228
63.0,6.3779935103409
64.0,6.378589543268816
65.0,6.379185722778644
66.0,6.379782049751107
67.0,6.37932398899386
68.0,6.3788670788539505
69.0,6.379463678710557
70.0,6.380060425884444
71.0,6.380657321250602
72.0,6.381254364313108
73.0,6.381851554058855
74.0,6.38244889217308
75.0,6.383046377447741
76.0,6.383644010233752
77.0,6.384241791649913
78.0,6.384839719273565
79.0,6.3854377968402005
80.0,6.386036021450664
81.0,6.386634394280527
82.0,6.387232915465404
83.0,6.387831584932869
84.0,6.388430402339139
85.0,6.3890293676130625
86.0,6.389628482268812
87.0,6.389171566260039
88.0,6.388715804301285
89.0,6.389315194628956
90.0,6.389914733292009
91.0,6.390514420890931
92.0,6.391114256706544
93.0,6.3917142427672715
94.0,6.392314374927544
95.0,6.392914658294124
96.0,6.393515089560587
97.0,6.3941156709446645
98.0,6.394716399813063
99.0,6.395317280365276
100.0,6.395918307208163
101.0,6.39546216486378
102.0,6.395007176701611
103.0,6.395608483156138
104.0,6.3962099395051695
105.0,6.396811544042393
106.0,6.397413299870649
107.0,6.398015202638611
108.0,6.39861725528074
109.0,6.399219459195187
110.0,6.399821812768003
111.0,6.399366191632701
112.0,6.398911729393909
113.0,6.399514361077443
114.0,6.40011714036828
115.0,6.400720076169144
116.0,6.401323162211462
117.0,6.401926392937639
118.0,6.402529773737278
119.0,6.403133307259303
120.0,6.40373699365454
121.0,6.4262821430014725
122.0,6.424772173089238
123.0,6.423258163982823
124.0,6.423863829262501
125.0,6.424469645584608
126.0,6.425075613175451
127.0,6.425681731802982
128.0,6.426288002069157
129.0,6.426894423213781
130.0,6.425383943387217
131.0,6.423869419614533
132.0,6.446414478129363
133.0,6.447022884911497
134.0,6.447631444651648
135.0,6.448240159278988
136.0,6.448849019268664
137.0,6.44945803366727
138.0,6.45006720397285
139.0,6.449615348088265
140.0,6.449164643274727
141.0,6.449774094947948
142.0,6.450383701345963
143.0,6.4509934585612925
144.0,6.451603370531039
145.0,6.451151784840079
146.0,6.450701356960899
147.0,6.451311553249504
148.0,6.45192190314166
149.0,6.452532406128135
150.0,6.453143061634364
151.0,6.453753870392724
152.0,6.453302626481239
153.0,6.4528525414482445
154.0,6.453463637294114
155.0,6.454074885881255
156.0,6.45468628796317
157.0,6.455297843316487
158.0,6.4548468757173865
159.0,6.454397067139411
160.0,6.455008910239599
161.0,6.455620907034337
162.0,6.456233057424974
163.0,6.455782299560809
164.0,6.455332701243115
165.0,6.45594514056306
166.0,6.4565577329312305
167.0,6.457170479880688
168.0,6.457783380285761
169.0,6.457332899607934
170.0,6.456883581023995
171.0,6.457496770318542
172.0,6.458110114784773
173.0,6.458723612912202
174.0,6.4582733432068835
175.0,6.457824236061327
176.0,6.458438024226375
177.0,6.45905196715826
178.0,6.459666063934563
179.0,6.459216005779005
180.0,6.458767111703892
181.0,6.459381499230524
182.0,6.459996041258684
183.0,6.460610738311367
184.0,6.460160892963671
185.0,6.4597122121626285
186.0,6.460327200073422
187.0,6.460942343457241
188.0,6.460492642520585
189.0,6.4600441075165875
190.0,6.460659541981748
191.0,6.461275132171707
192.0,6.46189087729303
193.0,6.461441390733583
194.0,6.460993070057889
195.0,6.46160910710757
196.0,6.462225300392596
197.0,6.461775958440377
198.0,6.461327784586196
199.0,6.461944270556039
200.0,6.462560912167881
201.0,6.462111715914773
202.0,6.461663689718122
203.0,6.462280624499719
204.0,6.46289771528366
205.0,6.462448665693643
206.0,6.462000786233801
207.0,6.462618170175766
208.0,6.46323571104606
209.0,6.46278681004344
210.0,6.46233907763596
211.0,6.4629569121750094
212.0,6.463574902620806
213.0,6.463126147163187
214.0,6.462678565001788
215.0,6.4632968503433545
216.0,6.46391529268886
217.0,6.463466686753378
218.0,6.463019251214163
219.0,6.463637991512094
220.0,6.464256881663076
221.0,6.486989786110755
222.0,6.483341259639232
223.0,6.4839620395915745
224.0,6.484582977375496
225.0,6.480933495929946
226.0,6.503655111071907
227.0,6.504277931685891
228.0,6.504900912097469
229.0,6.50445513849165
230.0,6.504010528221144
231.0,6.5046338089325815
232.0,6.505257249655692
233.0,6.50481162249995
234.0,6.504367165135605
235.0,6.5049909049524075
236.0,6.504545358778763
237.0,6.504100984136031
238.0,6.504725023549753
239.0,6.50427956000042
240.0,6.503835267374164
241.0,6.5044596065975355
242.0,6.505084105129434
243.0,6.504638793893051
244.0,6.504194654629501
245.0,6.504819454195598
246.0,6.504374224812146
247.0,6.5039301684593624
248.0,6.50455526854747
249.0,6.504110121922864
250.0,6.503666148754235
251.0,6.504291549749659
252.0,6.5038464858048926
253.0,6.503402595710476
254.0,6.504028298569082
255.0,6.504654160723646
256.0,6.50420925057341
257.0,6.503765515048414
258.0,6.50439167957105
259.0,6.503946852289168
260.0,6.503503200298631
261.0,6.504129667271208
262.0,6.503684922838154
263.0,6.503241355204395
264.0,6.5038681246290935
265.0,6.503423463949659
266.0,6.502979980096292
267.0,6.503607053101547
268.0,6.503162475074646
269.0,6.502719076316495
270.0,6.502274510577315
271.0,6.501831124243871
272.0,6.502458642671378
273.0,6.502014160513376
274.0,6.501570858826071
275.0,6.502198682310457
276.0,6.501754284266148
277.0,6.501311067734626
278.0,6.501939195523008
279.0,6.501494881174736
280.0,6.501051749309838
281.0,6.501680178531487
282.0,6.52238239425931
283.0,6.520869234222616
284.0,6.5214995876420545
285.0,6.5178386207096395
286.0,6.540674643098384
287.0,6.541306918511346
288.0,6.540865287985312
289.0,6.54042483721377
290.0,6.539983221258446
291.0,6.539542783004485
292.0,6.540175512984021
293.0,6.539733983048727
294.0,6.539293633937902
295.0,6.539926671703512
296.0,6.53948522876707
297.0,6.539044966096405
298.0,6.538603537371657
299.0,6.538163288785526
300.0,6.53879678224812
301.0,6.538355440222446
302.0,6.537915279967471
303.0,6.537473951886042
304.0,6.537033805537213
305.0,6.537667755681021
306.0,6.537226514704038
307.0,6.53678645652122
308.0,6.53634523021438
309.0,6.535905186182248
310.0,6.5365395936779365
311.0,6.536098454628565
312.0,6.535658499489564
313.0,6.535217375246731
314.0,6.534777434342999
315.0,6.535412299079773
316.0,6.534971262499319
317.0,6.5345314103896115
318.0,6.534090387981941
319.0,6.5336505515686625
320.0,6.533209542940803
321.0,6.532769719770116
322.0,6.533405192099657
323.0,6.532964271976738
324.0,6.532524539795965
325.0,6.532083633946947
326.0,6.531643916405187
327.0,6.531203027648928
328.0,6.530763325942907
329.0,6.531399401712051
330.0,6.55218569118793
331.0,6.55067176798309
332.0,6.551309797050251
333.0,6.547639609913176
334.0,6.570568149140982
335.0,6.570129918408618
336.0,6.5696928767145195
337.0,6.569254662309788
338.0,6.5688176351698715
339.0,6.568379436434647
340.0,6.5679424251366925
341.0,6.5675042434857005
342.0,6.56706724758083
343.0,6.567707828201208
344.0,6.567269737406463
345.0,6.566832834296527
346.0,6.56639475915437
347.0,6.565957871697982
348.0,6.565519813103812
349.0,6.5650829429597835
350.0,6.564644899487661
351.0,6.564208045581985
352.0,6.563770018831121
353.0,6.56333318231448
354.0,6.562895171415285
355.0,6.562458350633911
356.0,6.562020356996598
357.0,6.5615835526771065
358.0,6.562225356292942
359.0,6.561787453718566
360.0,6.561350742192481
361.0,6.560912856069521
362.0,6.560476162063807
363.0,6.5600382919701445
364.0,6.559601615289715
365.0,6.559163761384745
366.0,6.558727101893808
367.0,6.558289264034485
368.0,6.557852620653797
369.0,6.557414800608541
370.0,6.556978175552942
371.0,6.5778369108012384
372.0,6.576322376489628
373.0,6.574803921028504
374.0,6.595650746926545
375.0,6.595215477652822
376.0,6.594781402664175
377.0,6.594346149778794
378.0,6.5939120919944045
379.0,6.593476860673363
380.0,6.593042819981733
381.0,6.592607605159394
382.0,6.592173583140898
383.0,6.591738386041378
384.0,6.5913043824418125
385.0,6.590869203341185
386.0,6.590435218006299
387.0,6.590000056707197
388.0,6.589566089460959
389.0,6.589130946312316
390.0,6.58869699794451
391.0,6.588261872035332
392.0,6.5867450442145525
393.0,6.586311055622268
394.0,6.5858758885708895
395.0,6.585441918636512
396.0,6.585006769816069
397.0,6.5845728181248475
398.0,6.58413768781859
399.0,6.583703754357252
400.0,6.583268643069069
401.0,6.582834728018653
402.0,6.582399634210766
403.0,6.580882112204826
404.0,6.580448156988005
405.0,6.580013020345902
406.0,6.579579089173812
407.0,6.600501900344483
408.0,6.5989868614497595
409.0,6.597467889798011
410.0,6.61837877242683
411.0,6.617946227965106
412.0,6.617514875418713
413.0,6.617082349799858
414.0,6.616651018314471
415.0,6.6162185102271
416.0,6.614701895498115
417.0,6.6142705253760425
418.0,6.613837978583149
419.0,6.6134066295004885
420.0,6.612974100865628
421.0,6.612542772074406
422.0,6.612110263286063
423.0,6.610593189468609
424.0,6.610161821903482
425.0,6.60972927376136
426.0,6.6092979262178275
427.0,6.608865397115295
428.0,6.607347983109527
429.0,6.606916596672534
430.0,6.60648402865084
431.0,6.606052661830709
432.0,6.605620113476057
433.0,6.604102358811076
434.0,6.60367095401805
435.0,6.603238368014651
436.0,6.6028069830642835
437.0,6.602374416138659
438.0,6.60085632061854
439.0,6.600424894859287
440.0,6.621406866825126
441.0,6.619891392086515
442.0,6.618371973901901
443.0,6.639341996346893
444.0,6.638911987045759
445.0,6.6373951833575475
446.0,6.636966319310979
447.0,6.636536276588899
448.0,6.636107435107363
449.0,6.63567741305895
450.0,6.634160266297037
451.0,6.633731387156317
452.0,6.633301326402439
453.0,6.631783955732828
454.0,6.63135504069551
455.0,6.630924942051344
456.0,6.630496047710196
457.0,6.6300659707205085
458.0,6.628548258993753
459.0,6.628119327895341
460.0,6.627689213023906
461.0,6.626171277633155
462.0,6.6257423101729245
463.0,6.625312156856452
464.0,6.623793998983807
465.0,6.623364994464865
466.0,6.622934805121481
467.0,6.621416423947444
468.0,6.620987380928753
469.0,6.620557152639968
470.0,6.642685462405268
471.0,6.638989045105163
472.0,6.637469244327804
473.0,6.658493339357527
474.0,6.658065676582758
475.0,6.656548505284846
476.0,6.656121997287045
477.0,6.655694302466436
478.0,6.654176907484057
479.0,6.653750361382862
480.0,6.653322631215673
481.0,6.6518050122099055
482.0,6.651378431196321
483.0,6.6509506647476755
484.0,6.649432821574081
485.0,6.6490062050165974
486.0,6.648578401854294
487.0,6.64706033502835
488.0,6.646633683422131
489.0,6.646205843621765
490.0,6.644687553089959
491.0,6.644260865920209
492.0,6.6438329900652064
493.0,6.64231447632546
494.0,6.641887752612895
495.0,6.641459841819021
496.0,6.639941102185119
497.0,6.638422264023447
498.0,6.6379954485196535
499.0,6.659084158744406
500.0,6.657567970660537
501.0,6.65386532433368
502.0,6.676031326452048
503.0,6.6745138360332135
504.0,6.674089554585024
505.0,6.673664089715089
506.0,6.672146371649731
507.0,6.671722058389115
508.0,6.671296557682062
509.0,6.6697786154574175
510.0,6.668260567929799
511.0,6.667836161664724
512.0,6.667410565777303
513.0,6.665892294163335
514.0,6.665467853880237
515.0,6.665042223732215
516.0,6.663523727480822
517.0,6.6620051250126195
518.0,6.661580592722977
519.0,6.661154867267378
520.0,6.659636041613901
521.0,6.658117109714496
522.0,6.657692484547802
523.0,6.657266664415026
524.0,6.655747509452148
525.0,6.65532284788803
526.0,6.676460849578987
527.0,6.672753360075944
528.0,6.693877461272486
529.0,6.693454209948179
530.0,6.691936424594395
531.0,6.690418535059877
532.0,6.689996380845358
533.0,6.689573037781265
534.0,6.688054921238255
535.0,6.68653669922017
536.0,6.686114453900821
537.0,6.685691017046381
538.0,6.684172570108849
539.0,6.682654016228668
540.0,6.681135355073124
541.0,6.680712960588771
542.0,6.68028937285758
543.0,6.6787704870151074
544.0,6.677251495173628
545.0,6.6768290091088005
546.0,6.676405328285156
547.0,6.674886111615265
548.0,6.67336679039245
549.0,6.672944213030924
550.0,6.672520440360948
551.0,6.692608553804007
552.0,6.6888962063553095
553.0,6.710066111622432
554.0,6.709644904335718
555.0,6.708126868375153
556.0,6.706608723187102
557.0,6.705090471901201
558.0,6.704670308814855
559.0,6.704248950928751
560.0,6.702730475116134
561.0,6.701211890840874
562.0,6.700791637872037
563.0,6.70037019043118
564.0,6.698851380557578
565.0,6.697332464762525
566.0,6.695813441105486
567.0,6.694294310589967
568.0,6.693873850362706
569.0,6.693452194195281
570.0,6.691932838062371
571.0,6.690413374805928
572.0,6.688893803584186
573.0,6.68847319553511
574.0,6.688051393021567
575.0,6.708181518482036
576.0,6.704464500346447
577.0,6.725678607803125
578.0,6.725259387441277
579.0,6.723741125771923
580.0,6.722222753396743
581.0,6.720704272423845
582.0,6.719185684994287
583.0,6.718767456556357
584.0,6.7183480317323685
585.0,6.716829218862749
586.0,6.715310297638865
587.0,6.713791268684666
588.0,6.712272131617858
589.0,6.711853698996521
590.0,6.711434066900644
591.0,6.709914704951288
592.0,6.7083952357366385
593.0,6.706875658253317
594.0,6.705355973451745
595.0,6.704937334974865
596.0,6.704517498943076
597.0,6.702997585761153
598.0,6.723168169314718
599.0,6.7194466700480575
600.0,6.739601081143064
601.0,6.739184930601738
602.0,6.7387675877155075
603.0,6.737249008888966
604.0,6.735730324170454
605.0,6.734211530708443
606.0,6.732692629811311
607.0,6.731173620237676
608.0,6.730757210074572
609.0,6.730339600872931
610.0,6.728820365185015
611.0,6.727301022025664
612.0,6.725781570185163
613.0,6.7242620110384905
614.0,6.722742342436334
615.0,6.721222566199657
616.0,6.720805836060514
617.0,6.720387903411847
618.0,6.718867900800113
619.0,6.7173477925828
620.0,6.737557242116097
621.0,6.733831452394099
622.0,6.754024695798776
623.0,6.7536104202213
624.0,6.753194943881262
625.0,6.7516761852595835
626.0,6.750157318758781
627.0,6.748638343750713
628.0,6.7471192590618045
629.0,6.745600066378032
630.0,6.744080764227348
631.0,6.742561353657244
632.0,6.741041835676548
633.0,6.740627123248203
634.0,6.740211208048827
635.0,6.7386914631968295
636.0,6.737171609225868
637.0,6.735651645885149
638.0,6.734131576239321
639.0,6.732611398121428
640.0,6.731091111227187
641.0,6.751337803482585
642.0,6.747607916296559
643.0,6.768944659230662
644.0,6.768531041192027
645.0,6.7670122318407735
646.0,6.765493312984013
647.0,6.763974285458325
648.0,6.762455147631115
649.0,6.760935901618531
650.0,6.759416545739398
651.0,6.757897081068094
652.0,6.756377507250534
653.0,6.754857824094245
654.0,6.75333803315209
655.0,6.751818131714437
656.0,6.750298120387839
657.0,6.74988504243003
658.0,6.749470755395947
659.0,6.747950519975753
660.0,6.746430172029335
661.0,6.7449097197451024
662.0,6.765193882063528
663.0,6.761459886531853
664.0,6.781727783871446
665.0,6.780208833906194
666.0,6.778689771903373
667.0,6.777170602748946
668.0,6.775651322678634
669.0,6.774131933827903
670.0,6.77261243482792
671.0,6.771092826709932
672.0,6.76957310783326
673.0,6.768053280910642
674.0,6.766533343698349
675.0,6.765013297584353
676.0,6.7634931418131785
677.0,6.7619728762972215
678.0,6.761561477390423
679.0,6.761148871370274
680.0,6.7596283814389295
681.0,6.758107774844277
682.0,6.778427744247637
683.0,6.774689835482576
684.0,6.794993515059517
685.0,6.793474431220304
686.0,6.791955237878646
687.0,6.790435936374855
688.0,6.788916525431645
689.0,6.7873970046033705
690.0,6.785877372742895
691.0,6.784357631580704
692.0,6.7828377803564734
693.0,6.781317819476605
694.0,6.779797748213845
695.0,6.778277568343071
696.0,6.776757277995969
697.0,6.775236876121575
698.0,6.773716366315334
699.0,6.772195745400815
700.0,6.770675016260036
701.0,6.791029092767559
702.0,6.787287467584463
703.0,6.8076252282995
704.0,6.806106034468257
705.0,6.804586727342468
706.0,6.803067313320412
707.0,6.801547786978354
708.0,6.800028151430581
709.0,6.798508405238252
710.0,6.796988548449093
711.0,6.795468582186189
712.0,6.7939485046137875
713.0,6.7924283168484365
714.0,6.790908019619842
715.0,6.789387612373815
716.0,6.787867093189128
717.0,6.786346464953127
718.0,6.7848257267157805
719.0,6.807437966455154
720.0,6.801469984444111
721.0,6.797724420450308
722.0,6.820319929818567
723.0,6.817686872208597
724.0,6.815054800457418
725.0,6.81353517826151
726.0,6.812015442608846
727.0,6.810495597754901
728.0,6.808975640969706
729.0,6.807455574606323
730.0,6.8059353971361745
731.0,6.804415109267033
732.0,6.802894710718718
733.0,6.8013742023774455
734.0,6.799853582120562
735.0,6.798332851591731
736.0,6.796812011025864
737.0,6.795291061511321
738.0,6.8157119982918175
739.0,6.811963120658163
740.0,6.832367694309802
741.0,6.830848308982503
742.0,6.82821327812713
743.0,6.8255792368722865
744.0,6.824059413290016
745.0,6.82253947798511
746.0,6.8210194317650235
747.0,6.819499274815385
748.0,6.817979007022593
749.0,6.81645862731294
750.0,6.814938137429564
751.0,6.813417536342861
752.0,6.811896823570017
753.0,6.810376000379108
754.0,6.80773894558682
755.0,6.827075775676633
756.0,6.823323571824588
757.0,6.8437589208698455
758.0,6.842239464360908
759.0,6.840719894491841
760.0,6.839200212704796
761.0,6.837680420355852
762.0,6.836160516637037
763.0,6.834640500970735
764.0,6.833120374689933
765.0,6.830482654076945
766.0,6.827845929299187
767.0,6.826325361079704
768.0,6.824804682815888
769.0,6.823283892206057
770.0,6.821762991316412
771.0,6.820241976082137
772.0,6.818720852991291
773.0,6.839205492310427
774.0,6.835449746675735
775.0,6.854799178514774
776.0,6.8521619707848345
777.0,6.850642222524641
778.0,6.8491223639507055
779.0,6.847602393777571
780.0,6.846082310791466
781.0,6.844562116606085
782.0,6.843041811087616
783.0,6.840402221844357
784.0,6.837763629067233
785.0,6.836242880740009
786.0,6.834722020721884
787.0,6.8332010508568715
788.0,6.831679965875459
789.0,6.830158771551211
790.0,6.848434111590706
791.0,6.86669469655444
792.0,6.865175113368416
793.0,6.863655420443813
794.0,6.862135617754653
795.0,6.860615700740745
796.0,6.859095673458462
797.0,6.856454879931434
798.0,6.853815082622255
799.0,6.852294609543499
800.0,6.850774025083268
801.0,6.849253327987853
802.0,6.847732519912263
803.0,6.8450906674052305
804.0,6.8424498157749625
805.0,6.840928567646969
806.0,6.861473630259411
807.0,6.857711405510543
808.0,6.8782400150108955
809.0,6.876720382546843
810.0,6.874078558431584
811.0,6.871437729380737
812.0,6.869917655673994
813.0,6.868397468976255
814.0,6.866877169989138
815.0,6.864234448493171
816.0,6.861592724712757
817.0,6.860071980137803
818.0,6.858551122494525
819.0,6.857030151849905
820.0,6.854386536565208
821.0,6.851743918959954
822.0,6.872318433719016
823.0,6.868553064305232
824.0,6.88911109639502
825.0,6.8875914297071645
826.0,6.8849480153294635
827.0,6.8823055997555045
828.0,6.880785486441042
829.0,6.8792652616659495
830.0,6.877744923382167
831.0,6.875100607490722
832.0,6.872457290799467
833.0,6.870936505019806
834.0,6.869415606975117
835.0,6.866770556790058
